No.,Pos. [°2Th.],Iobs [cts],Icalc [cts],Iback [cts],CT [s],ESD,D spacings
1,20.0250,52.0000, , ,1.0000, ,4.43049
2,20.0750,43.0000, , ,1.0000, ,4.41957
3,20.1250,45.0000, , ,1.0000, ,4.40870
4,20.1750,49.0000, , ,1.0000, ,4.39789
5,20.2250,42.0000, , ,1.0000, ,4.38713
6,20.2750,44.0000, , ,1.0000, ,4.37642
7,20.3250,44.0000, , ,1.0000, ,4.36577
8,20.3750,45.0000, , ,1.0000, ,4.35517
9,20.4250,47.0000, , ,1.0000, ,4.34462
10,20.4750,51.0000, , ,1.0000, ,4.33412
11,20.5250,53.0000, , ,1.0000, ,4.32368
12,20.5750,54.0000, , ,1.0000, ,4.31328
13,20.6250,54.0000, , ,1.0000, ,4.30294
14,20.6750,52.0000, , ,1.0000, ,4.29265
15,20.7250,49.0000, , ,1.0000, ,4.28240
16,20.7750,47.0000, , ,1.0000, ,4.27221
17,20.8250,44.0000, , ,1.0000, ,4.26207
18,20.8750,46.0000, , ,1.0000, ,4.25197
19,20.9250,44.0000, , ,1.0000, ,4.24192
20,20.9750,45.0000, , ,1.0000, ,4.23192
21,21.0250,45.0000, , ,1.0000, ,4.22197
22,21.0750,45.0000, , ,1.0000, ,4.21207
23,21.1250,47.0000, , ,1.0000, ,4.20221
24,21.1750,47.0000, , ,1.0000, ,4.19240
25,21.2250,46.0000, , ,1.0000, ,4.18264
26,21.2750,49.0000, , ,1.0000, ,4.17292
27,21.3250,51.0000, , ,1.0000, ,4.16325
28,21.3750,53.0000, , ,1.0000, ,4.15362
29,21.4250,52.0000, , ,1.0000, ,4.14404
30,21.4750,51.0000, , ,1.0000, ,4.13451
31,21.5250,49.0000, , ,1.0000, ,4.12502
32,21.5750,48.0000, , ,1.0000, ,4.11557
33,21.6250,48.0000, , ,1.0000, ,4.10617
34,21.6750,45.0000, , ,1.0000, ,4.09681
35,21.7250,43.0000, , ,1.0000, ,4.08749
36,21.7750,46.0000, , ,1.0000, ,4.07822
37,21.8250,47.0000, , ,1.0000, ,4.06899
38,21.8750,49.0000, , ,1.0000, ,4.05980
39,21.9250,46.0000, , ,1.0000, ,4.05066
40,21.9750,46.0000, , ,1.0000, ,4.04155
41,22.0250,47.0000, , ,1.0000, ,4.03249
42,22.0750,46.0000, , ,1.0000, ,4.02347
43,22.1250,45.0000, , ,1.0000, ,4.01449
44,22.1750,43.0000, , ,1.0000, ,4.00555
45,22.2250,43.0000, , ,1.0000, ,3.99665
46,22.2750,45.0000, , ,1.0000, ,3.98779
47,22.3250,47.0000, , ,1.0000, ,3.97898
48,22.3750,50.0000, , ,1.0000, ,3.97020
49,22.4250,50.0000, , ,1.0000, ,3.96146
50,22.4750,51.0000, , ,1.0000, ,3.95276
51,22.5250,51.0000, , ,1.0000, ,3.94410
52,22.5750,50.0000, , ,1.0000, ,3.93547
53,22.6250,49.0000, , ,1.0000, ,3.92689
54,22.6750,48.0000, , ,1.0000, ,3.91834
55,22.7250,47.0000, , ,1.0000, ,3.90984
56,22.7750,45.0000, , ,1.0000, ,3.90136
57,22.8250,47.0000, , ,1.0000, ,3.89293
58,22.8750,47.0000, , ,1.0000, ,3.88454
59,22.9250,45.0000, , ,1.0000, ,3.87618
60,22.9750,44.0000, , ,1.0000, ,3.86785
61,23.0250,46.0000, , ,1.0000, ,3.85957
62,23.0750,45.0000, , ,1.0000, ,3.85132
63,23.1250,48.0000, , ,1.0000, ,3.84310
64,23.1750,49.0000, , ,1.0000, ,3.83492
65,23.2250,50.0000, , ,1.0000, ,3.82678
66,23.2750,48.0000, , ,1.0000, ,3.81867
67,23.3250,50.0000, , ,1.0000, ,3.81060
68,23.3750,48.0000, , ,1.0000, ,3.80256
69,23.4250,47.0000, , ,1.0000, ,3.79456
70,23.4750,49.0000, , ,1.0000, ,3.78659
71,23.5250,48.0000, , ,1.0000, ,3.77866
72,23.5750,45.0000, , ,1.0000, ,3.77075
73,23.6250,44.0000, , ,1.0000, ,3.76289
74,23.6750,43.0000, , ,1.0000, ,3.75505
75,23.7250,44.0000, , ,1.0000, ,3.74725
76,23.7750,43.0000, , ,1.0000, ,3.73948
77,23.8250,44.0000, , ,1.0000, ,3.73175
78,23.8750,43.0000, , ,1.0000, ,3.72405
79,23.9250,46.0000, , ,1.0000, ,3.71638
80,23.9750,50.0000, , ,1.0000, ,3.70874
81,24.0250,48.0000, , ,1.0000, ,3.70113
82,24.0750,49.0000, , ,1.0000, ,3.69356
83,24.1250,52.0000, , ,1.0000, ,3.68602
84,24.1750,54.0000, , ,1.0000, ,3.67851
85,24.2250,56.0000, , ,1.0000, ,3.67103
86,24.2750,57.0000, , ,1.0000, ,3.66358
87,24.3250,57.0000, , ,1.0000, ,3.65616
88,24.3750,57.0000, , ,1.0000, ,3.64878
89,24.4250,55.0000, , ,1.0000, ,3.64142
90,24.4750,50.0000, , ,1.0000, ,3.63410
91,24.5250,44.0000, , ,1.0000, ,3.62680
92,24.5750,43.0000, , ,1.0000, ,3.61953
93,24.6250,41.0000, , ,1.0000, ,3.61230
94,24.6750,39.0000, , ,1.0000, ,3.60509
95,24.7250,40.0000, , ,1.0000, ,3.59791
96,24.7750,43.0000, , ,1.0000, ,3.59077
97,24.8250,45.0000, , ,1.0000, ,3.58365
98,24.8750,47.0000, , ,1.0000, ,3.57656
99,24.9250,46.0000, , ,1.0000, ,3.56949
100,24.9750,43.0000, , ,1.0000, ,3.56246
101,25.0250,43.0000, , ,1.0000, ,3.55546
102,25.0750,44.0000, , ,1.0000, ,3.54848
103,25.1250,42.0000, , ,1.0000, ,3.54153
104,25.1750,42.0000, , ,1.0000, ,3.53461
105,25.2250,45.0000, , ,1.0000, ,3.52772
106,25.2750,44.0000, , ,1.0000, ,3.52085
107,25.3250,42.0000, , ,1.0000, ,3.51401
108,25.3750,43.0000, , ,1.0000, ,3.50720
109,25.4250,43.0000, , ,1.0000, ,3.50042
110,25.4750,40.0000, , ,1.0000, ,3.49366
111,25.5250,39.0000, , ,1.0000, ,3.48693
112,25.5750,41.0000, , ,1.0000, ,3.48023
113,25.6250,40.0000, , ,1.0000, ,3.47355
114,25.6750,40.0000, , ,1.0000, ,3.46690
115,25.7250,41.0000, , ,1.0000, ,3.46027
116,25.7750,40.0000, , ,1.0000, ,3.45368
117,25.8250,40.0000, , ,1.0000, ,3.44710
118,25.8750,41.0000, , ,1.0000, ,3.44055
119,25.9250,40.0000, , ,1.0000, ,3.43403
120,25.9750,39.0000, , ,1.0000, ,3.42754
121,26.0250,38.0000, , ,1.0000, ,3.42106
122,26.0750,39.0000, , ,1.0000, ,3.41462
123,26.1250,39.0000, , ,1.0000, ,3.40819
124,26.1750,39.0000, , ,1.0000, ,3.40180
125,26.2250,40.0000, , ,1.0000, ,3.39543
126,26.2750,41.0000, , ,1.0000, ,3.38908
127,26.3250,41.0000, , ,1.0000, ,3.38275
128,26.3750,40.0000, , ,1.0000, ,3.37645
129,26.4250,39.0000, , ,1.0000, ,3.37018
130,26.4750,38.0000, , ,1.0000, ,3.36393
131,26.5250,38.0000, , ,1.0000, ,3.35770
132,26.5750,38.0000, , ,1.0000, ,3.35150
133,26.6250,38.0000, , ,1.0000, ,3.34531
134,26.6750,39.0000, , ,1.0000, ,3.33916
135,26.7250,40.0000, , ,1.0000, ,3.33302
136,26.7750,41.0000, , ,1.0000, ,3.32691
137,26.8250,42.0000, , ,1.0000, ,3.32083
138,26.8750,40.0000, , ,1.0000, ,3.31476
139,26.9250,39.0000, , ,1.0000, ,3.30872
140,26.9750,38.0000, , ,1.0000, ,3.30270
141,27.0250,37.0000, , ,1.0000, ,3.29670
142,27.0750,37.0000, , ,1.0000, ,3.29073
143,27.1250,37.0000, , ,1.0000, ,3.28477
144,27.1750,36.0000, , ,1.0000, ,3.27884
145,27.2250,38.0000, , ,1.0000, ,3.27294
146,27.2750,40.0000, , ,1.0000, ,3.26705
147,27.3250,42.0000, , ,1.0000, ,3.26118
148,27.3750,43.0000, , ,1.0000, ,3.25534
149,27.4250,44.0000, , ,1.0000, ,3.24952
150,27.4750,43.0000, , ,1.0000, ,3.24372
151,27.5250,41.0000, , ,1.0000, ,3.23794
152,27.5750,39.0000, , ,1.0000, ,3.23218
153,27.6250,39.0000, , ,1.0000, ,3.22645
154,27.6750,38.0000, , ,1.0000, ,3.22073
155,27.7250,38.0000, , ,1.0000, ,3.21504
156,27.7750,38.0000, , ,1.0000, ,3.20936
157,27.8250,36.0000, , ,1.0000, ,3.20371
158,27.8750,36.0000, , ,1.0000, ,3.19808
159,27.9250,34.0000, , ,1.0000, ,3.19246
160,27.9750,33.0000, , ,1.0000, ,3.18687
161,28.0250,35.0000, , ,1.0000, ,3.18130
162,28.0750,34.0000, , ,1.0000, ,3.17575
163,28.1250,37.0000, , ,1.0000, ,3.17021
164,28.1750,37.0000, , ,1.0000, ,3.16470
165,28.2250,37.0000, , ,1.0000, ,3.15921
166,28.2750,38.0000, , ,1.0000, ,3.15374
167,28.3250,37.0000, , ,1.0000, ,3.14828
168,28.3750,36.0000, , ,1.0000, ,3.14285
169,28.4250,36.0000, , ,1.0000, ,3.13743
170,28.4750,36.0000, , ,1.0000, ,3.13204
171,28.5250,36.0000, , ,1.0000, ,3.12666
172,28.5750,35.0000, , ,1.0000, ,3.12130
173,28.6250,35.0000, , ,1.0000, ,3.11597
174,28.6750,35.0000, , ,1.0000, ,3.11065
175,28.7250,36.0000, , ,1.0000, ,3.10534
176,28.7750,38.0000, , ,1.0000, ,3.10006
177,28.8250,37.0000, , ,1.0000, ,3.09480
178,28.8750,35.0000, , ,1.0000, ,3.08955
179,28.9250,34.0000, , ,1.0000, ,3.08433
180,28.9750,32.0000, , ,1.0000, ,3.07912
181,29.0250,31.0000, , ,1.0000, ,3.07393
182,29.0750,33.0000, , ,1.0000, ,3.06875
183,29.1250,34.0000, , ,1.0000, ,3.06360
184,29.1750,35.0000, , ,1.0000, ,3.05846
185,29.2250,37.0000, , ,1.0000, ,3.05334
186,29.2750,36.0000, , ,1.0000, ,3.04824
187,29.3250,34.0000, , ,1.0000, ,3.04316
188,29.3750,33.0000, , ,1.0000, ,3.03809
189,29.4250,32.0000, , ,1.0000, ,3.03304
190,29.4750,32.0000, , ,1.0000, ,3.02801
191,29.5250,33.0000, , ,1.0000, ,3.02300
192,29.5750,37.0000, , ,1.0000, ,3.01800
193,29.6250,38.0000, , ,1.0000, ,3.01302
194,29.6750,37.0000, , ,1.0000, ,3.00806
195,29.7250,36.0000, , ,1.0000, ,3.00311
196,29.7750,33.0000, , ,1.0000, ,2.99818
197,29.8250,32.0000, , ,1.0000, ,2.99327
198,29.8750,32.0000, , ,1.0000, ,2.98837
199,29.9250,32.0000, , ,1.0000, ,2.98350
200,29.9750,30.0000, , ,1.0000, ,2.97863
201,30.0250,31.0000, , ,1.0000, ,2.97379
202,30.0750,33.0000, , ,1.0000, ,2.96896
203,30.1250,34.0000, , ,1.0000, ,2.96414
204,30.1750,37.0000, , ,1.0000, ,2.95934
205,30.2250,42.0000, , ,1.0000, ,2.95456
206,30.2750,47.0000, , ,1.0000, ,2.94980
207,30.3250,53.0000, , ,1.0000, ,2.94505
208,30.3750,58.0000, , ,1.0000, ,2.94031
209,30.4250,62.0000, , ,1.0000, ,2.93559
210,30.4750,61.0000, , ,1.0000, ,2.93089
211,30.5250,55.0000, , ,1.0000, ,2.92620
212,30.5750,49.0000, , ,1.0000, ,2.92153
213,30.6250,44.0000, , ,1.0000, ,2.91688
214,30.6750,38.0000, , ,1.0000, ,2.91224
215,30.7250,35.0000, , ,1.0000, ,2.90761
216,30.7750,33.0000, , ,1.0000, ,2.90300
217,30.8250,32.0000, , ,1.0000, ,2.89841
218,30.8750,32.0000, , ,1.0000, ,2.89383
219,30.9250,32.0000, , ,1.0000, ,2.88926
220,30.9750,31.0000, , ,1.0000, ,2.88471
221,31.0250,27.0000, , ,1.0000, ,2.88018
222,31.0750,28.0000, , ,1.0000, ,2.87566
223,31.1250,28.0000, , ,1.0000, ,2.87115
224,31.1750,28.0000, , ,1.0000, ,2.86666
225,31.2250,29.0000, , ,1.0000, ,2.86218
226,31.2750,29.0000, , ,1.0000, ,2.85772
227,31.3250,29.0000, , ,1.0000, ,2.85327
228,31.3750,29.0000, , ,1.0000, ,2.84884
229,31.4250,30.0000, , ,1.0000, ,2.84442
230,31.4750,29.0000, , ,1.0000, ,2.84002
231,31.5250,27.0000, , ,1.0000, ,2.83563
232,31.5750,25.0000, , ,1.0000, ,2.83125
233,31.6250,26.0000, , ,1.0000, ,2.82689
234,31.6750,25.0000, , ,1.0000, ,2.82254
235,31.7250,24.0000, , ,1.0000, ,2.81820
236,31.7750,24.0000, , ,1.0000, ,2.81388
237,31.8250,24.0000, , ,1.0000, ,2.80958
238,31.8750,24.0000, , ,1.0000, ,2.80528
239,31.9250,26.0000, , ,1.0000, ,2.80100
240,31.9750,25.0000, , ,1.0000, ,2.79674
241,32.0250,23.0000, , ,1.0000, ,2.79249
242,32.0750,23.0000, , ,1.0000, ,2.78825
243,32.1250,23.0000, , ,1.0000, ,2.78402
244,32.1750,22.0000, , ,1.0000, ,2.77981
245,32.2250,23.0000, , ,1.0000, ,2.77561
246,32.2750,24.0000, , ,1.0000, ,2.77142
247,32.3250,23.0000, , ,1.0000, ,2.76725
248,32.3750,25.0000, , ,1.0000, ,2.76309
249,32.4250,27.0000, , ,1.0000, ,2.75894
250,32.4750,26.0000, , ,1.0000, ,2.75481
251,32.5250,27.0000, , ,1.0000, ,2.75069
252,32.5750,28.0000, , ,1.0000, ,2.74658
253,32.6250,27.0000, , ,1.0000, ,2.74249
254,32.6750,28.0000, , ,1.0000, ,2.73840
255,32.7250,28.0000, , ,1.0000, ,2.73433
256,32.7750,28.0000, , ,1.0000, ,2.73028
257,32.8250,26.0000, , ,1.0000, ,2.72623
258,32.8750,26.0000, , ,1.0000, ,2.72220
259,32.9250,26.0000, , ,1.0000, ,2.71818
260,32.9750,24.0000, , ,1.0000, ,2.71417
261,33.0250,23.0000, , ,1.0000, ,2.71018
262,33.0750,22.0000, , ,1.0000, ,2.70620
263,33.1250,21.0000, , ,1.0000, ,2.70222
264,33.1750,23.0000, , ,1.0000, ,2.69827
265,33.2250,25.0000, , ,1.0000, ,2.69432
266,33.2750,28.0000, , ,1.0000, ,2.69039
267,33.3250,30.0000, , ,1.0000, ,2.68646
268,33.3750,32.0000, , ,1.0000, ,2.68255
269,33.4250,34.0000, , ,1.0000, ,2.67865
270,33.4750,32.0000, , ,1.0000, ,2.67477
271,33.5250,32.0000, , ,1.0000, ,2.67089
272,33.5750,29.0000, , ,1.0000, ,2.66703
273,33.6250,26.0000, , ,1.0000, ,2.66318
274,33.6750,26.0000, , ,1.0000, ,2.65934
275,33.7250,23.0000, , ,1.0000, ,2.65551
276,33.7750,23.0000, , ,1.0000, ,2.65169
277,33.8250,21.0000, , ,1.0000, ,2.64789
278,33.8750,21.0000, , ,1.0000, ,2.64409
279,33.9250,21.0000, , ,1.0000, ,2.64031
280,33.9750,22.0000, , ,1.0000, ,2.63654
281,34.0250,24.0000, , ,1.0000, ,2.63278
282,34.0750,24.0000, , ,1.0000, ,2.62903
283,34.1250,25.0000, , ,1.0000, ,2.62529
284,34.1750,25.0000, , ,1.0000, ,2.62156
285,34.2250,23.0000, , ,1.0000, ,2.61785
286,34.2750,24.0000, , ,1.0000, ,2.61414
287,34.3250,22.0000, , ,1.0000, ,2.61045
288,34.3750,22.0000, , ,1.0000, ,2.60677
289,34.4250,22.0000, , ,1.0000, ,2.60310
290,34.4750,22.0000, , ,1.0000, ,2.59944
291,34.5250,22.0000, , ,1.0000, ,2.59579
292,34.5750,22.0000, , ,1.0000, ,2.59215
293,34.6250,20.0000, , ,1.0000, ,2.58852
294,34.6750,19.0000, , ,1.0000, ,2.58490
295,34.7250,20.0000, , ,1.0000, ,2.58129
296,34.7750,21.0000, , ,1.0000, ,2.57769
297,34.8250,19.0000, , ,1.0000, ,2.57411
298,34.8750,19.0000, , ,1.0000, ,2.57053
299,34.9250,20.0000, , ,1.0000, ,2.56697
300,34.9750,20.0000, , ,1.0000, ,2.56341
301,35.0250,21.0000, , ,1.0000, ,2.55987
302,35.0750,22.0000, , ,1.0000, ,2.55633
303,35.1250,23.0000, , ,1.0000, ,2.55281
304,35.1750,25.0000, , ,1.0000, ,2.54929
305,35.2250,28.0000, , ,1.0000, ,2.54579
306,35.2750,27.0000, , ,1.0000, ,2.54229
307,35.3250,27.0000, , ,1.0000, ,2.53881
308,35.3750,29.0000, , ,1.0000, ,2.53534
309,35.4250,31.0000, , ,1.0000, ,2.53187
310,35.4750,38.0000, , ,1.0000, ,2.52842
311,35.5250,49.0000, , ,1.0000, ,2.52497
312,35.5750,67.0000, , ,1.0000, ,2.52154
313,35.6250,93.0000, , ,1.0000, ,2.51812
314,35.6750,118.0000, , ,1.0000, ,2.51470
315,35.7250,137.0000, , ,1.0000, ,2.51130
316,35.7750,144.0000, , ,1.0000, ,2.50790
317,35.8250,140.0000, , ,1.0000, ,2.50451
318,35.8750,125.0000, , ,1.0000, ,2.50114
319,35.9250,101.0000, , ,1.0000, ,2.49777
320,35.9750,74.0000, , ,1.0000, ,2.49441
321,36.0250,49.0000, , ,1.0000, ,2.49107
322,36.0750,31.0000, , ,1.0000, ,2.48773
323,36.1250,21.0000, , ,1.0000, ,2.48440
324,36.1750,16.0000, , ,1.0000, ,2.48108
325,36.2250,16.0000, , ,1.0000, ,2.47777
326,36.2750,17.0000, , ,1.0000, ,2.47447
327,36.3250,17.0000, , ,1.0000, ,2.47118
328,36.3750,19.0000, , ,1.0000, ,2.46790
329,36.4250,18.0000, , ,1.0000, ,2.46462
330,36.4750,18.0000, , ,1.0000, ,2.46136
331,36.5250,18.0000, , ,1.0000, ,2.45811
332,36.5750,17.0000, , ,1.0000, ,2.45486
333,36.6250,16.0000, , ,1.0000, ,2.45162
334,36.6750,15.0000, , ,1.0000, ,2.44840
335,36.7250,16.0000, , ,1.0000, ,2.44518
336,36.7750,17.0000, , ,1.0000, ,2.44197
337,36.8250,16.0000, , ,1.0000, ,2.43877
338,36.8750,18.0000, , ,1.0000, ,2.43557
339,36.9250,17.0000, , ,1.0000, ,2.43239
340,36.9750,17.0000, , ,1.0000, ,2.42922
341,37.0250,15.0000, , ,1.0000, ,2.42605
342,37.0750,16.0000, , ,1.0000, ,2.42289
343,37.1250,17.0000, , ,1.0000, ,2.41974
344,37.1750,17.0000, , ,1.0000, ,2.41661
345,37.2250,18.0000, , ,1.0000, ,2.41347
346,37.2750,17.0000, , ,1.0000, ,2.41035
347,37.3250,18.0000, , ,1.0000, ,2.40724
348,37.3750,20.0000, , ,1.0000, ,2.40413
349,37.4250,20.0000, , ,1.0000, ,2.40103
350,37.4750,20.0000, , ,1.0000, ,2.39795
351,37.5250,19.0000, , ,1.0000, ,2.39487
352,37.5750,19.0000, , ,1.0000, ,2.39179
353,37.6250,18.0000, , ,1.0000, ,2.38873
354,37.6750,17.0000, , ,1.0000, ,2.38567
355,37.7250,15.0000, , ,1.0000, ,2.38263
356,37.7750,12.0000, , ,1.0000, ,2.37959
357,37.8250,13.0000, , ,1.0000, ,2.37656
358,37.8750,14.0000, , ,1.0000, ,2.37354
359,37.9250,15.0000, , ,1.0000, ,2.37052
360,37.9750,15.0000, , ,1.0000, ,2.36751
361,38.0250,15.0000, , ,1.0000, ,2.36452
362,38.0750,15.0000, , ,1.0000, ,2.36153
363,38.1250,15.0000, , ,1.0000, ,2.35854
364,38.1750,14.0000, , ,1.0000, ,2.35557
365,38.2250,12.0000, , ,1.0000, ,2.35260
366,38.2750,11.0000, , ,1.0000, ,2.34965
367,38.3250,11.0000, , ,1.0000, ,2.34669
368,38.3750,10.0000, , ,1.0000, ,2.34375
369,38.4250,11.0000, , ,1.0000, ,2.34082
370,38.4750,9.0000, , ,1.0000, ,2.33789
371,38.5250,10.0000, , ,1.0000, ,2.33497
372,38.5750,9.0000, , ,1.0000, ,2.33206
373,38.6250,11.0000, , ,1.0000, ,2.32916
374,38.6750,11.0000, , ,1.0000, ,2.32626
375,38.7250,12.0000, , ,1.0000, ,2.32337
376,38.7750,14.0000, , ,1.0000, ,2.32049
377,38.8250,14.0000, , ,1.0000, ,2.31762
378,38.8750,14.0000, , ,1.0000, ,2.31475
379,38.9250,14.0000, , ,1.0000, ,2.31189
380,38.9750,13.0000, , ,1.0000, ,2.30904
381,39.0250,12.0000, , ,1.0000, ,2.30620
382,39.0750,11.0000, , ,1.0000, ,2.30336
383,39.1250,10.0000, , ,1.0000, ,2.30053
384,39.1750,9.0000, , ,1.0000, ,2.29771
385,39.2250,10.0000, , ,1.0000, ,2.29490
386,39.2750,11.0000, , ,1.0000, ,2.29209
387,39.3250,12.0000, , ,1.0000, ,2.28929
388,39.3750,12.0000, , ,1.0000, ,2.28650
389,39.4250,13.0000, , ,1.0000, ,2.28372
390,39.4750,12.0000, , ,1.0000, ,2.28094
391,39.5250,11.0000, , ,1.0000, ,2.27817
392,39.5750,9.0000, , ,1.0000, ,2.27541
393,39.6250,8.0000, , ,1.0000, ,2.27265
394,39.6750,7.0000, , ,1.0000, ,2.26990
395,39.7250,8.0000, , ,1.0000, ,2.26716
396,39.7750,8.0000, , ,1.0000, ,2.26442
397,39.8250,9.0000, , ,1.0000, ,2.26170
398,39.8750,9.0000, , ,1.0000, ,2.25898
399,39.9250,11.0000, , ,1.0000, ,2.25626
400,39.9750,11.0000, , ,1.0000, ,2.25355
401,40.0250,10.0000, , ,1.0000, ,2.25085
402,40.0750,10.0000, , ,1.0000, ,2.24816
403,40.1250,11.0000, , ,1.0000, ,2.24548
404,40.1750,11.0000, , ,1.0000, ,2.24280
405,40.2250,11.0000, , ,1.0000, ,2.24012
406,40.2750,11.0000, , ,1.0000, ,2.23746
407,40.3250,11.0000, , ,1.0000, ,2.23480
408,40.3750,10.0000, , ,1.0000, ,2.23215
409,40.4250,11.0000, , ,1.0000, ,2.22950
410,40.4750,10.0000, , ,1.0000, ,2.22686
411,40.5250,10.0000, , ,1.0000, ,2.22423
412,40.5750,10.0000, , ,1.0000, ,2.22160
413,40.6250,10.0000, , ,1.0000, ,2.21898
414,40.6750,11.0000, , ,1.0000, ,2.21637
415,40.7250,11.0000, , ,1.0000, ,2.21377
416,40.7750,13.0000, , ,1.0000, ,2.21117
417,40.8250,14.0000, , ,1.0000, ,2.20857
418,40.8750,13.0000, , ,1.0000, ,2.20599
419,40.9250,14.0000, , ,1.0000, ,2.20341
420,40.9750,12.0000, , ,1.0000, ,2.20084
421,41.0250,13.0000, , ,1.0000, ,2.19827
422,41.0750,14.0000, , ,1.0000, ,2.19571
423,41.1250,14.0000, , ,1.0000, ,2.19315
424,41.1750,15.0000, , ,1.0000, ,2.19061
425,41.2250,13.0000, , ,1.0000, ,2.18806
426,41.2750,13.0000, , ,1.0000, ,2.18553
427,41.3250,12.0000, , ,1.0000, ,2.18300
428,41.3750,10.0000, , ,1.0000, ,2.18048
429,41.4250,9.0000, , ,1.0000, ,2.17796
430,41.4750,8.0000, , ,1.0000, ,2.17545
431,41.5250,10.0000, , ,1.0000, ,2.17295
432,41.5750,11.0000, , ,1.0000, ,2.17045
433,41.6250,12.0000, , ,1.0000, ,2.16796
434,41.6750,12.0000, , ,1.0000, ,2.16547
435,41.7250,11.0000, , ,1.0000, ,2.16299
436,41.7750,12.0000, , ,1.0000, ,2.16052
437,41.8250,11.0000, , ,1.0000, ,2.15805
438,41.8750,11.0000, , ,1.0000, ,2.15559
439,41.9250,11.0000, , ,1.0000, ,2.15314
440,41.9750,11.0000, , ,1.0000, ,2.15069
441,42.0250,11.0000, , ,1.0000, ,2.14824
442,42.0750,10.0000, , ,1.0000, ,2.14581
443,42.1250,11.0000, , ,1.0000, ,2.14337
444,42.1750,12.0000, , ,1.0000, ,2.14095
445,42.2250,11.0000, , ,1.0000, ,2.13853
446,42.2750,11.0000, , ,1.0000, ,2.13612
447,42.3250,10.0000, , ,1.0000, ,2.13371
448,42.3750,10.0000, , ,1.0000, ,2.13131
449,42.4250,10.0000, , ,1.0000, ,2.12891
450,42.4750,10.0000, , ,1.0000, ,2.12652
451,42.5250,10.0000, , ,1.0000, ,2.12413
452,42.5750,9.0000, , ,1.0000, ,2.12176
453,42.6250,10.0000, , ,1.0000, ,2.11938
454,42.6750,11.0000, , ,1.0000, ,2.11701
455,42.7250,11.0000, , ,1.0000, ,2.11465
456,42.7750,11.0000, , ,1.0000, ,2.11230
457,42.8250,10.0000, , ,1.0000, ,2.10995
458,42.8750,11.0000, , ,1.0000, ,2.10760
459,42.9250,11.0000, , ,1.0000, ,2.10526
460,42.9750,13.0000, , ,1.0000, ,2.10293
461,43.0250,13.0000, , ,1.0000, ,2.10060
462,43.0750,13.0000, , ,1.0000, ,2.09828
463,43.1250,15.0000, , ,1.0000, ,2.09596
464,43.1750,18.0000, , ,1.0000, ,2.09365
465,43.2250,23.0000, , ,1.0000, ,2.09134
466,43.2750,26.0000, , ,1.0000, ,2.08904
467,43.3250,31.0000, , ,1.0000, ,2.08675
468,43.3750,34.0000, , ,1.0000, ,2.08446
469,43.4250,35.0000, , ,1.0000, ,2.08217
470,43.4750,33.0000, , ,1.0000, ,2.07989
471,43.5250,30.0000, , ,1.0000, ,2.07762
472,43.5750,26.0000, , ,1.0000, ,2.07535
473,43.6250,22.0000, , ,1.0000, ,2.07309
474,43.6750,19.0000, , ,1.0000, ,2.07083
475,43.7250,17.0000, , ,1.0000, ,2.06858
476,43.7750,16.0000, , ,1.0000, ,2.06633
477,43.8250,15.0000, , ,1.0000, ,2.06409
478,43.8750,14.0000, , ,1.0000, ,2.06186
479,43.9250,13.0000, , ,1.0000, ,2.05962
480,43.9750,11.0000, , ,1.0000, ,2.05740
481,44.0250,10.0000, , ,1.0000, ,2.05518
482,44.0750,9.0000, , ,1.0000, ,2.05296
483,44.1250,8.0000, , ,1.0000, ,2.05075
484,44.1750,8.0000, , ,1.0000, ,2.04855
485,44.2250,9.0000, , ,1.0000, ,2.04635
486,44.2750,10.0000, , ,1.0000, ,2.04415
487,44.3250,10.0000, , ,1.0000, ,2.04196
488,44.3750,10.0000, , ,1.0000, ,2.03978
489,44.4250,10.0000, , ,1.0000, ,2.03760
490,44.4750,10.0000, , ,1.0000, ,2.03542
491,44.5250,11.0000, , ,1.0000, ,2.03325
492,44.5750,11.0000, , ,1.0000, ,2.03109
493,44.6250,15.0000, , ,1.0000, ,2.02893
494,44.6750,24.0000, , ,1.0000, ,2.02677
495,44.7250,35.0000, , ,1.0000, ,2.02462
496,44.7750,44.0000, , ,1.0000, ,2.02248
497,44.8250,50.0000, , ,1.0000, ,2.02034
498,44.8750,52.0000, , ,1.0000, ,2.01820
499,44.9250,49.0000, , ,1.0000, ,2.01607
500,44.9750,42.0000, , ,1.0000, ,2.01395
501,45.0250,32.0000, , ,1.0000, ,2.01183
502,45.0750,21.0000, , ,1.0000, ,2.00971
503,45.1250,13.0000, , ,1.0000, ,2.00760
504,45.1750,11.0000, , ,1.0000, ,2.00550
505,45.2250,10.0000, , ,1.0000, ,2.00340
506,45.2750,9.0000, , ,1.0000, ,2.00130
507,45.3250,10.0000, , ,1.0000, ,1.99921
508,45.3750,11.0000, , ,1.0000, ,1.99712
509,45.4250,11.0000, , ,1.0000, ,1.99504
510,45.4750,10.0000, , ,1.0000, ,1.99296
511,45.5250,11.0000, , ,1.0000, ,1.99089
512,45.5750,11.0000, , ,1.0000, ,1.98882
513,45.6250,11.0000, , ,1.0000, ,1.98676
514,45.6750,11.0000, , ,1.0000, ,1.98470
515,45.7250,11.0000, , ,1.0000, ,1.98264
516,45.7750,10.0000, , ,1.0000, ,1.98060
517,45.8250,11.0000, , ,1.0000, ,1.97855
518,45.8750,11.0000, , ,1.0000, ,1.97651
519,45.9250,11.0000, , ,1.0000, ,1.97447
520,45.9750,11.0000, , ,1.0000, ,1.97244
521,46.0250,9.0000, , ,1.0000, ,1.97042
522,46.0750,8.0000, , ,1.0000, ,1.96840
523,46.1250,7.0000, , ,1.0000, ,1.96638
524,46.1750,7.0000, , ,1.0000, ,1.96436
525,46.2250,8.0000, , ,1.0000, ,1.96236
526,46.2750,9.0000, , ,1.0000, ,1.96035
527,46.3250,10.0000, , ,1.0000, ,1.95835
528,46.3750,11.0000, , ,1.0000, ,1.95636
529,46.4250,11.0000, , ,1.0000, ,1.95437
530,46.4750,10.0000, , ,1.0000, ,1.95238
531,46.5250,10.0000, , ,1.0000, ,1.95040
532,46.5750,9.0000, , ,1.0000, ,1.94842
533,46.6250,8.0000, , ,1.0000, ,1.94645
534,46.6750,7.0000, , ,1.0000, ,1.94448
535,46.7250,7.0000, , ,1.0000, ,1.94252
536,46.7750,7.0000, , ,1.0000, ,1.94056
537,46.8250,7.0000, , ,1.0000, ,1.93860
538,46.8750,7.0000, , ,1.0000, ,1.93665
539,46.9250,7.0000, , ,1.0000, ,1.93470
540,46.9750,7.0000, , ,1.0000, ,1.93276
541,47.0250,9.0000, , ,1.0000, ,1.93082
542,47.0750,9.0000, , ,1.0000, ,1.92889
543,47.1250,9.0000, , ,1.0000, ,1.92696
544,47.1750,9.0000, , ,1.0000, ,1.92503
545,47.2250,9.0000, , ,1.0000, ,1.92311
546,47.2750,9.0000, , ,1.0000, ,1.92119
547,47.3250,8.0000, , ,1.0000, ,1.91928
548,47.3750,7.0000, , ,1.0000, ,1.91737
549,47.4250,6.0000, , ,1.0000, ,1.91546
550,47.4750,5.0000, , ,1.0000, ,1.91356
551,47.5250,6.0000, , ,1.0000, ,1.91167
552,47.5750,7.0000, , ,1.0000, ,1.90977
553,47.6250,7.0000, , ,1.0000, ,1.90789
554,47.6750,8.0000, , ,1.0000, ,1.90600
555,47.7250,9.0000, , ,1.0000, ,1.90412
556,47.7750,9.0000, , ,1.0000, ,1.90224
557,47.8250,9.0000, , ,1.0000, ,1.90037
558,47.8750,9.0000, , ,1.0000, ,1.89850
559,47.9250,8.0000, , ,1.0000, ,1.89664
560,47.9750,8.0000, , ,1.0000, ,1.89478
561,48.0250,8.0000, , ,1.0000, ,1.89292
562,48.0750,8.0000, , ,1.0000, ,1.89107
563,48.1250,7.0000, , ,1.0000, ,1.88922
564,48.1750,8.0000, , ,1.0000, ,1.88738
565,48.2250,8.0000, , ,1.0000, ,1.88554
566,48.2750,8.0000, , ,1.0000, ,1.88370
567,48.3250,8.0000, , ,1.0000, ,1.88187
568,48.3750,9.0000, , ,1.0000, ,1.88004
569,48.4250,8.0000, , ,1.0000, ,1.87822
570,48.4750,8.0000, , ,1.0000, ,1.87640
571,48.5250,7.0000, , ,1.0000, ,1.87458
572,48.5750,7.0000, , ,1.0000, ,1.87277
573,48.6250,7.0000, , ,1.0000, ,1.87096
574,48.6750,6.0000, , ,1.0000, ,1.86916
575,48.7250,7.0000, , ,1.0000, ,1.86735
576,48.7750,7.0000, , ,1.0000, ,1.86556
577,48.8250,8.0000, , ,1.0000, ,1.86376
578,48.8750,9.0000, , ,1.0000, ,1.86197
579,48.9250,9.0000, , ,1.0000, ,1.86019
580,48.9750,9.0000, , ,1.0000, ,1.85840
581,49.0250,8.0000, , ,1.0000, ,1.85663
582,49.0750,7.0000, , ,1.0000, ,1.85485
583,49.1250,8.0000, , ,1.0000, ,1.85308
584,49.1750,7.0000, , ,1.0000, ,1.85131
585,49.2250,8.0000, , ,1.0000, ,1.84955
586,49.2750,9.0000, , ,1.0000, ,1.84779
587,49.3250,10.0000, , ,1.0000, ,1.84603
588,49.3750,10.0000, , ,1.0000, ,1.84428
589,49.4250,13.0000, , ,1.0000, ,1.84253
590,49.4750,14.0000, , ,1.0000, ,1.84079
591,49.5250,14.0000, , ,1.0000, ,1.83905
592,49.5750,12.0000, , ,1.0000, ,1.83731
593,49.6250,12.0000, , ,1.0000, ,1.83557
594,49.6750,11.0000, , ,1.0000, ,1.83384
595,49.7250,9.0000, , ,1.0000, ,1.83212
596,49.7750,8.0000, , ,1.0000, ,1.83039
597,49.8250,7.0000, , ,1.0000, ,1.82867
598,49.8750,7.0000, , ,1.0000, ,1.82696
599,49.9250,8.0000, , ,1.0000, ,1.82525
600,49.9750,8.0000, , ,1.0000, ,1.82354
601,50.0250,7.0000, , ,1.0000, ,1.82183
602,50.0750,7.0000, , ,1.0000, ,1.82013
603,50.1250,8.0000, , ,1.0000, ,1.81843
604,50.1750,8.0000, , ,1.0000, ,1.81674
605,50.2250,8.0000, , ,1.0000, ,1.81504
606,50.2750,7.0000, , ,1.0000, ,1.81336
607,50.3250,7.0000, , ,1.0000, ,1.81167
608,50.3750,8.0000, , ,1.0000, ,1.80999
609,50.4250,7.0000, , ,1.0000, ,1.80831
610,50.4750,7.0000, , ,1.0000, ,1.80664
611,50.5250,7.0000, , ,1.0000, ,1.80497
612,50.5750,6.0000, , ,1.0000, ,1.80330
613,50.6250,7.0000, , ,1.0000, ,1.80164
614,50.6750,6.0000, , ,1.0000, ,1.79998
615,50.7250,6.0000, , ,1.0000, ,1.79832
616,50.7750,6.0000, , ,1.0000, ,1.79667
617,50.8250,7.0000, , ,1.0000, ,1.79502
618,50.8750,8.0000, , ,1.0000, ,1.79337
619,50.9250,8.0000, , ,1.0000, ,1.79173
620,50.9750,8.0000, , ,1.0000, ,1.79009
621,51.0250,8.0000, , ,1.0000, ,1.78845
622,51.0750,7.0000, , ,1.0000, ,1.78681
623,51.1250,6.0000, , ,1.0000, ,1.78518
624,51.1750,6.0000, , ,1.0000, ,1.78356
625,51.2250,7.0000, , ,1.0000, ,1.78193
626,51.2750,8.0000, , ,1.0000, ,1.78031
627,51.3250,9.0000, , ,1.0000, ,1.77870
628,51.3750,9.0000, , ,1.0000, ,1.77708
629,51.4250,8.0000, , ,1.0000, ,1.77547
630,51.4750,6.0000, , ,1.0000, ,1.77387
631,51.5250,6.0000, , ,1.0000, ,1.77226
632,51.5750,6.0000, , ,1.0000, ,1.77066
633,51.6250,6.0000, , ,1.0000, ,1.76906
634,51.6750,6.0000, , ,1.0000, ,1.76747
635,51.7250,6.0000, , ,1.0000, ,1.76588
636,51.7750,6.0000, , ,1.0000, ,1.76429
637,51.8250,5.0000, , ,1.0000, ,1.76271
638,51.8750,5.0000, , ,1.0000, ,1.76112
639,51.9250,6.0000, , ,1.0000, ,1.75955
640,51.9750,6.0000, , ,1.0000, ,1.75797
641,52.0250,8.0000, , ,1.0000, ,1.75640
642,52.0750,9.0000, , ,1.0000, ,1.75483
643,52.1250,9.0000, , ,1.0000, ,1.75326
644,52.1750,8.0000, , ,1.0000, ,1.75170
645,52.2250,7.0000, , ,1.0000, ,1.75014
646,52.2750,5.0000, , ,1.0000, ,1.74859
647,52.3250,4.0000, , ,1.0000, ,1.74703
648,52.3750,4.0000, , ,1.0000, ,1.74548
649,52.4250,6.0000, , ,1.0000, ,1.74394
650,52.4750,6.0000, , ,1.0000, ,1.74239
651,52.5250,6.0000, , ,1.0000, ,1.74085
652,52.5750,7.0000, , ,1.0000, ,1.73931
653,52.6250,6.0000, , ,1.0000, ,1.73778
654,52.6750,7.0000, , ,1.0000, ,1.73625
655,52.7250,7.0000, , ,1.0000, ,1.73472
656,52.7750,6.0000, , ,1.0000, ,1.73319
657,52.8250,6.0000, , ,1.0000, ,1.73167
658,52.8750,7.0000, , ,1.0000, ,1.73015
659,52.9250,8.0000, , ,1.0000, ,1.72863
660,52.9750,7.0000, , ,1.0000, ,1.72712
661,53.0250,8.0000, , ,1.0000, ,1.72561
662,53.0750,9.0000, , ,1.0000, ,1.72410
663,53.1250,9.0000, , ,1.0000, ,1.72259
664,53.1750,9.0000, , ,1.0000, ,1.72109
665,53.2250,9.0000, , ,1.0000, ,1.71959
666,53.2750,8.0000, , ,1.0000, ,1.71810
667,53.3250,7.0000, , ,1.0000, ,1.71660
668,53.3750,8.0000, , ,1.0000, ,1.71511
669,53.4250,8.0000, , ,1.0000, ,1.71363
670,53.4750,7.0000, , ,1.0000, ,1.71214
671,53.5250,9.0000, , ,1.0000, ,1.71066
672,53.5750,11.0000, , ,1.0000, ,1.70918
673,53.6250,14.0000, , ,1.0000, ,1.70771
674,53.6750,17.0000, , ,1.0000, ,1.70623
675,53.7250,21.0000, , ,1.0000, ,1.70476
676,53.7750,23.0000, , ,1.0000, ,1.70330
677,53.8250,23.0000, , ,1.0000, ,1.70183
678,53.8750,23.0000, , ,1.0000, ,1.70037
679,53.9250,21.0000, , ,1.0000, ,1.69891
680,53.9750,17.0000, , ,1.0000, ,1.69746
681,54.0250,15.0000, , ,1.0000, ,1.69600
682,54.0750,12.0000, , ,1.0000, ,1.69455
683,54.1250,11.0000, , ,1.0000, ,1.69311
684,54.1750,11.0000, , ,1.0000, ,1.69166
685,54.2250,11.0000, , ,1.0000, ,1.69022
686,54.2750,11.0000, , ,1.0000, ,1.68878
687,54.3250,11.0000, , ,1.0000, ,1.68734
688,54.3750,11.0000, , ,1.0000, ,1.68591
689,54.4250,11.0000, , ,1.0000, ,1.68448
690,54.4750,12.0000, , ,1.0000, ,1.68305
691,54.5250,11.0000, , ,1.0000, ,1.68163
692,54.5750,11.0000, , ,1.0000, ,1.68020
693,54.6250,9.0000, , ,1.0000, ,1.67878
694,54.6750,8.0000, , ,1.0000, ,1.67737
695,54.7250,7.0000, , ,1.0000, ,1.67595
696,54.7750,6.0000, , ,1.0000, ,1.67454
697,54.8250,5.0000, , ,1.0000, ,1.67313
698,54.8750,3.0000, , ,1.0000, ,1.67173
699,54.9250,4.0000, , ,1.0000, ,1.67032
700,54.9750,5.0000, , ,1.0000, ,1.66892
701,55.0250,5.0000, , ,1.0000, ,1.66752
702,55.0750,6.0000, , ,1.0000, ,1.66613
703,55.1250,6.0000, , ,1.0000, ,1.66473
704,55.1750,6.0000, , ,1.0000, ,1.66334
705,55.2250,7.0000, , ,1.0000, ,1.66196
706,55.2750,7.0000, , ,1.0000, ,1.66057
707,55.3250,7.0000, , ,1.0000, ,1.65919
708,55.3750,7.0000, , ,1.0000, ,1.65781
709,55.4250,8.0000, , ,1.0000, ,1.65643
710,55.4750,8.0000, , ,1.0000, ,1.65506
711,55.5250,9.0000, , ,1.0000, ,1.65369
712,55.5750,8.0000, , ,1.0000, ,1.65232
713,55.6250,8.0000, , ,1.0000, ,1.65095
714,55.6750,9.0000, , ,1.0000, ,1.64958
715,55.7250,9.0000, , ,1.0000, ,1.64822
716,55.7750,9.0000, , ,1.0000, ,1.64686
717,55.8250,8.0000, , ,1.0000, ,1.64551
718,55.8750,7.0000, , ,1.0000, ,1.64415
719,55.9250,7.0000, , ,1.0000, ,1.64280
720,55.9750,7.0000, , ,1.0000, ,1.64145
721,56.0250,6.0000, , ,1.0000, ,1.64011
722,56.0750,6.0000, , ,1.0000, ,1.63876
723,56.1250,7.0000, , ,1.0000, ,1.63742
724,56.1750,7.0000, , ,1.0000, ,1.63608
725,56.2250,7.0000, , ,1.0000, ,1.63475
726,56.2750,7.0000, , ,1.0000, ,1.63341
727,56.3250,7.0000, , ,1.0000, ,1.63208
728,56.3750,8.0000, , ,1.0000, ,1.63075
729,56.4250,8.0000, , ,1.0000, ,1.62942
730,56.4750,8.0000, , ,1.0000, ,1.62810
731,56.5250,7.0000, , ,1.0000, ,1.62678
732,56.5750,7.0000, , ,1.0000, ,1.62546
733,56.6250,6.0000, , ,1.0000, ,1.62414
734,56.6750,5.0000, , ,1.0000, ,1.62283
735,56.7250,6.0000, , ,1.0000, ,1.62152
736,56.7750,6.0000, , ,1.0000, ,1.62021
737,56.8250,8.0000, , ,1.0000, ,1.61890
738,56.8750,10.0000, , ,1.0000, ,1.61760
739,56.9250,11.0000, , ,1.0000, ,1.61629
740,56.9750,13.0000, , ,1.0000, ,1.61499
741,57.0250,17.0000, , ,1.0000, ,1.61370
742,57.0750,20.0000, , ,1.0000, ,1.61240
743,57.1250,23.0000, , ,1.0000, ,1.61111
744,57.1750,28.0000, , ,1.0000, ,1.60982
745,57.2250,32.0000, , ,1.0000, ,1.60853
746,57.2750,37.0000, , ,1.0000, ,1.60725
747,57.3250,42.0000, , ,1.0000, ,1.60596
748,57.3750,43.0000, , ,1.0000, ,1.60468
749,57.4250,42.0000, , ,1.0000, ,1.60340
750,57.4750,40.0000, , ,1.0000, ,1.60213
751,57.5250,38.0000, , ,1.0000, ,1.60085
752,57.5750,32.0000, , ,1.0000, ,1.59958
753,57.6250,28.0000, , ,1.0000, ,1.59831
754,57.6750,22.0000, , ,1.0000, ,1.59705
755,57.7250,17.0000, , ,1.0000, ,1.59578
756,57.7750,15.0000, , ,1.0000, ,1.59452
757,57.8250,13.0000, , ,1.0000, ,1.59326
758,57.8750,10.0000, , ,1.0000, ,1.59200
759,57.9250,9.0000, , ,1.0000, ,1.59075
760,57.9750,9.0000, , ,1.0000, ,1.58949
761,58.0250,8.0000, , ,1.0000, ,1.58824
762,58.0750,8.0000, , ,1.0000, ,1.58700
763,58.1250,7.0000, , ,1.0000, ,1.58575
764,58.1750,7.0000, , ,1.0000, ,1.58451
765,58.2250,6.0000, , ,1.0000, ,1.58326
766,58.2750,6.0000, , ,1.0000, ,1.58202
767,58.3250,7.0000, , ,1.0000, ,1.58079
768,58.3750,7.0000, , ,1.0000, ,1.57955
769,58.4250,7.0000, , ,1.0000, ,1.57832
770,58.4750,7.0000, , ,1.0000, ,1.57709
771,58.5250,7.0000, , ,1.0000, ,1.57586
772,58.5750,7.0000, , ,1.0000, ,1.57463
773,58.6250,7.0000, , ,1.0000, ,1.57341
774,58.6750,7.0000, , ,1.0000, ,1.57219
775,58.7250,8.0000, , ,1.0000, ,1.57097
776,58.7750,8.0000, , ,1.0000, ,1.56975
777,58.8250,9.0000, , ,1.0000, ,1.56854
778,58.8750,8.0000, , ,1.0000, ,1.56732
779,58.9250,8.0000, , ,1.0000, ,1.56611
780,58.9750,9.0000, , ,1.0000, ,1.56491
781,59.0250,8.0000, , ,1.0000, ,1.56370
782,59.0750,8.0000, , ,1.0000, ,1.56249
783,59.1250,8.0000, , ,1.0000, ,1.56129
784,59.1750,7.0000, , ,1.0000, ,1.56009
785,59.2250,6.0000, , ,1.0000, ,1.55889
786,59.2750,7.0000, , ,1.0000, ,1.55770
787,59.3250,6.0000, , ,1.0000, ,1.55651
788,59.3750,6.0000, , ,1.0000, ,1.55531
789,59.4250,6.0000, , ,1.0000, ,1.55412
790,59.4750,6.0000, , ,1.0000, ,1.55294
791,59.5250,6.0000, , ,1.0000, ,1.55175
792,59.5750,6.0000, , ,1.0000, ,1.55057
793,59.6250,6.0000, , ,1.0000, ,1.54939
794,59.6750,6.0000, , ,1.0000, ,1.54821
795,59.7250,6.0000, , ,1.0000, ,1.54703
796,59.7750,7.0000, , ,1.0000, ,1.54586
797,59.8250,9.0000, , ,1.0000, ,1.54469
798,59.8750,9.0000, , ,1.0000, ,1.54352
799,59.9250,9.0000, , ,1.0000, ,1.54235
800,59.9750,9.0000, , ,1.0000, ,1.54118
801,60.0250,9.0000, , ,1.0000, ,1.54002
802,60.0750,9.0000, , ,1.0000, ,1.53885
803,60.1250,9.0000, , ,1.0000, ,1.53769
804,60.1750,9.0000, , ,1.0000, ,1.53654
805,60.2250,9.0000, , ,1.0000, ,1.53538
806,60.2750,10.0000, , ,1.0000, ,1.53423
807,60.3250,10.0000, , ,1.0000, ,1.53307
808,60.3750,9.0000, , ,1.0000, ,1.53192
809,60.4250,8.0000, , ,1.0000, ,1.53078
810,60.4750,7.0000, , ,1.0000, ,1.52963
811,60.5250,7.0000, , ,1.0000, ,1.52849
812,60.5750,6.0000, , ,1.0000, ,1.52734
813,60.6250,5.0000, , ,1.0000, ,1.52620
814,60.6750,6.0000, , ,1.0000, ,1.52506
815,60.7250,7.0000, , ,1.0000, ,1.52393
816,60.7750,6.0000, , ,1.0000, ,1.52279
817,60.8250,5.0000, , ,1.0000, ,1.52166
818,60.8750,4.0000, , ,1.0000, ,1.52053
819,60.9250,4.0000, , ,1.0000, ,1.51940
820,60.9750,5.0000, , ,1.0000, ,1.51828
821,61.0250,6.0000, , ,1.0000, ,1.51715
822,61.0750,7.0000, , ,1.0000, ,1.51603
823,61.1250,7.0000, , ,1.0000, ,1.51491
824,61.1750,9.0000, , ,1.0000, ,1.51379
825,61.2250,9.0000, , ,1.0000, ,1.51268
826,61.2750,8.0000, , ,1.0000, ,1.51156
827,61.3250,7.0000, , ,1.0000, ,1.51045
828,61.3750,6.0000, , ,1.0000, ,1.50934
829,61.4250,6.0000, , ,1.0000, ,1.50823
830,61.4750,7.0000, , ,1.0000, ,1.50712
831,61.5250,8.0000, , ,1.0000, ,1.50602
832,61.5750,7.0000, , ,1.0000, ,1.50492
833,61.6250,7.0000, , ,1.0000, ,1.50381
834,61.6750,7.0000, , ,1.0000, ,1.50271
835,61.7250,7.0000, , ,1.0000, ,1.50162
836,61.7750,6.0000, , ,1.0000, ,1.50052
837,61.8250,6.0000, , ,1.0000, ,1.49943
838,61.8750,6.0000, , ,1.0000, ,1.49834
839,61.9250,6.0000, , ,1.0000, ,1.49725
840,61.9750,7.0000, , ,1.0000, ,1.49616
841,62.0250,8.0000, , ,1.0000, ,1.49507
842,62.0750,8.0000, , ,1.0000, ,1.49399
843,62.1250,8.0000, , ,1.0000, ,1.49291
844,62.1750,7.0000, , ,1.0000, ,1.49183
845,62.2250,7.0000, , ,1.0000, ,1.49075
846,62.2750,8.0000, , ,1.0000, ,1.48967
847,62.3250,9.0000, , ,1.0000, ,1.48860
848,62.3750,11.0000, , ,1.0000, ,1.48752
849,62.4250,13.0000, , ,1.0000, ,1.48645
850,62.4750,15.0000, , ,1.0000, ,1.48538
851,62.5250,16.0000, , ,1.0000, ,1.48431
852,62.5750,20.0000, , ,1.0000, ,1.48325
853,62.6250,23.0000, , ,1.0000, ,1.48218
854,62.6750,26.0000, , ,1.0000, ,1.48112
855,62.7250,32.0000, , ,1.0000, ,1.48006
856,62.7750,38.0000, , ,1.0000, ,1.47900
857,62.8250,44.0000, , ,1.0000, ,1.47795
858,62.8750,49.0000, , ,1.0000, ,1.47689
859,62.9250,53.0000, , ,1.0000, ,1.47584
860,62.9750,56.0000, , ,1.0000, ,1.47479
861,63.0250,54.0000, , ,1.0000, ,1.47374
862,63.0750,52.0000, , ,1.0000, ,1.47269
863,63.1250,48.0000, , ,1.0000, ,1.47164
864,63.1750,43.0000, , ,1.0000, ,1.47060
865,63.2250,38.0000, , ,1.0000, ,1.46955
866,63.2750,31.0000, , ,1.0000, ,1.46851
867,63.3250,26.0000, , ,1.0000, ,1.46747
868,63.3750,20.0000, , ,1.0000, ,1.46644
869,63.4250,17.0000, , ,1.0000, ,1.46540
870,63.4750,14.0000, , ,1.0000, ,1.46437
871,63.5250,10.0000, , ,1.0000, ,1.46334
872,63.5750,8.0000, , ,1.0000, ,1.46231
873,63.6250,8.0000, , ,1.0000, ,1.46128
874,63.6750,9.0000, , ,1.0000, ,1.46025
875,63.7250,8.0000, , ,1.0000, ,1.45922
876,63.7750,8.0000, , ,1.0000, ,1.45820
877,63.8250,8.0000, , ,1.0000, ,1.45718
878,63.8750,7.0000, , ,1.0000, ,1.45616
879,63.9250,8.0000, , ,1.0000, ,1.45514
880,63.9750,8.0000, , ,1.0000, ,1.45412
881,64.0250,9.0000, , ,1.0000, ,1.45311
882,64.0750,9.0000, , ,1.0000, ,1.45210
883,64.1250,11.0000, , ,1.0000, ,1.45108
884,64.1750,12.0000, , ,1.0000, ,1.45007
885,64.2250,12.0000, , ,1.0000, ,1.44907
886,64.2750,13.0000, , ,1.0000, ,1.44806
887,64.3250,14.0000, , ,1.0000, ,1.44705
888,64.3750,13.0000, , ,1.0000, ,1.44605
889,64.4250,13.0000, , ,1.0000, ,1.44505
890,64.4750,12.0000, , ,1.0000, ,1.44405
891,64.5250,10.0000, , ,1.0000, ,1.44305
892,64.5750,9.0000, , ,1.0000, ,1.44205
893,64.6250,8.0000, , ,1.0000, ,1.44106
894,64.6750,6.0000, , ,1.0000, ,1.44007
895,64.7250,6.0000, , ,1.0000, ,1.43907
896,64.7750,7.0000, , ,1.0000, ,1.43808
897,64.8250,8.0000, , ,1.0000, ,1.43710
898,64.8750,8.0000, , ,1.0000, ,1.43611
899,64.9250,11.0000, , ,1.0000, ,1.43512
900,64.9750,11.0000, , ,1.0000, ,1.43414
901,65.0250,13.0000, , ,1.0000, ,1.43316
902,65.0750,13.0000, , ,1.0000, ,1.43218
903,65.1250,13.0000, , ,1.0000, ,1.43120
904,65.1750,13.0000, , ,1.0000, ,1.43022
905,65.2250,12.0000, , ,1.0000, ,1.42925
906,65.2750,11.0000, , ,1.0000, ,1.42827
907,65.3250,9.0000, , ,1.0000, ,1.42730
908,65.3750,8.0000, , ,1.0000, ,1.42633
909,65.4250,8.0000, , ,1.0000, ,1.42536
910,65.4750,6.0000, , ,1.0000, ,1.42439
911,65.5250,6.0000, , ,1.0000, ,1.42343
912,65.5750,5.0000, , ,1.0000, ,1.42246
913,65.6250,5.0000, , ,1.0000, ,1.42150
914,65.6750,5.0000, , ,1.0000, ,1.42054
915,65.7250,5.0000, , ,1.0000, ,1.41958
916,65.7750,6.0000, , ,1.0000, ,1.41862
917,65.8250,6.0000, , ,1.0000, ,1.41766
918,65.8750,6.0000, , ,1.0000, ,1.41671
919,65.9250,7.0000, , ,1.0000, ,1.41576
920,65.9750,6.0000, , ,1.0000, ,1.41480
921,66.0250,7.0000, , ,1.0000, ,1.41385
922,66.0750,6.0000, , ,1.0000, ,1.41291
923,66.1250,6.0000, , ,1.0000, ,1.41196
924,66.1750,6.0000, , ,1.0000, ,1.41101
925,66.2250,6.0000, , ,1.0000, ,1.41007
926,66.2750,6.0000, , ,1.0000, ,1.40913
927,66.3250,6.0000, , ,1.0000, ,1.40819
928,66.3750,6.0000, , ,1.0000, ,1.40725
929,66.4250,6.0000, , ,1.0000, ,1.40631
930,66.4750,5.0000, , ,1.0000, ,1.40537
931,66.5250,5.0000, , ,1.0000, ,1.40444
932,66.5750,5.0000, , ,1.0000, ,1.40350
933,66.6250,4.0000, , ,1.0000, ,1.40257
934,66.6750,5.0000, , ,1.0000, ,1.40164
935,66.7250,6.0000, , ,1.0000, ,1.40071
936,66.7750,7.0000, , ,1.0000, ,1.39978
937,66.8250,7.0000, , ,1.0000, ,1.39886
938,66.8750,7.0000, , ,1.0000, ,1.39793
939,66.9250,7.0000, , ,1.0000, ,1.39701
940,66.9750,7.0000, , ,1.0000, ,1.39609
941,67.0250,6.0000, , ,1.0000, ,1.39517
942,67.0750,5.0000, , ,1.0000, ,1.39425
943,67.1250,5.0000, , ,1.0000, ,1.39333
944,67.1750,5.0000, , ,1.0000, ,1.39242
945,67.2250,5.0000, , ,1.0000, ,1.39150
946,67.2750,6.0000, , ,1.0000, ,1.39059
947,67.3250,6.0000, , ,1.0000, ,1.38968
948,67.3750,6.0000, , ,1.0000, ,1.38877
949,67.4250,7.0000, , ,1.0000, ,1.38786
950,67.4750,7.0000, , ,1.0000, ,1.38695
951,67.5250,7.0000, , ,1.0000, ,1.38605
952,67.5750,7.0000, , ,1.0000, ,1.38515
953,67.6250,6.0000, , ,1.0000, ,1.38424
954,67.6750,5.0000, , ,1.0000, ,1.38334
955,67.7250,5.0000, , ,1.0000, ,1.38244
956,67.7750,4.0000, , ,1.0000, ,1.38154
957,67.8250,4.0000, , ,1.0000, ,1.38065
958,67.8750,4.0000, , ,1.0000, ,1.37975
959,67.9250,5.0000, , ,1.0000, ,1.37886
960,67.9750,6.0000, , ,1.0000, ,1.37797
961,68.0250,5.0000, , ,1.0000, ,1.37707
962,68.0750,5.0000, , ,1.0000, ,1.37618
963,68.1250,5.0000, , ,1.0000, ,1.37530
964,68.1750,4.0000, , ,1.0000, ,1.37441
965,68.2250,4.0000, , ,1.0000, ,1.37352
966,68.2750,4.0000, , ,1.0000, ,1.37264
967,68.3250,5.0000, , ,1.0000, ,1.37176
968,68.3750,4.0000, , ,1.0000, ,1.37088
969,68.4250,5.0000, , ,1.0000, ,1.37000
970,68.4750,4.0000, , ,1.0000, ,1.36912
971,68.5250,4.0000, , ,1.0000, ,1.36824
972,68.5750,4.0000, , ,1.0000, ,1.36736
973,68.6250,4.0000, , ,1.0000, ,1.36649
974,68.6750,3.0000, , ,1.0000, ,1.36562
975,68.7250,4.0000, , ,1.0000, ,1.36475
976,68.7750,4.0000, , ,1.0000, ,1.36388
977,68.8250,4.0000, , ,1.0000, ,1.36301
978,68.8750,4.0000, , ,1.0000, ,1.36214
979,68.9250,5.0000, , ,1.0000, ,1.36127
980,68.9750,5.0000, , ,1.0000, ,1.36041
981,69.0250,6.0000, , ,1.0000, ,1.35954
982,69.0750,6.0000, , ,1.0000, ,1.35868
983,69.1250,6.0000, , ,1.0000, ,1.35782
984,69.1750,6.0000, , ,1.0000, ,1.35696
985,69.2250,6.0000, , ,1.0000, ,1.35610
986,69.2750,5.0000, , ,1.0000, ,1.35525
987,69.3250,4.0000, , ,1.0000, ,1.35439
988,69.3750,5.0000, , ,1.0000, ,1.35354
989,69.4250,4.0000, , ,1.0000, ,1.35269
990,69.4750,4.0000, , ,1.0000, ,1.35183
991,69.5250,4.0000, , ,1.0000, ,1.35098
992,69.5750,3.0000, , ,1.0000, ,1.35014
993,69.6250,4.0000, , ,1.0000, ,1.34929
994,69.6750,4.0000, , ,1.0000, ,1.34844
995,69.7250,5.0000, , ,1.0000, ,1.34760
996,69.7750,5.0000, , ,1.0000, ,1.34675
997,69.8250,6.0000, , ,1.0000, ,1.34591
998,69.8750,6.0000, , ,1.0000, ,1.34507
999,69.9250,6.0000, , ,1.0000, ,1.34423
1000,69.9750,6.0000, , ,1.0000, ,1.34339
1001,70.0250,5.0000, , ,1.0000, ,1.34256
1002,70.0750,4.0000, , ,1.0000, ,1.34172
1003,70.1250,3.0000, , ,1.0000, ,1.34089
1004,70.1750,3.0000, , ,1.0000, ,1.34005
1005,70.2250,4.0000, , ,1.0000, ,1.33922
1006,70.2750,4.0000, , ,1.0000, ,1.33839
1007,70.3250,4.0000, , ,1.0000, ,1.33756
1008,70.3750,4.0000, , ,1.0000, ,1.33674
1009,70.4250,4.0000, , ,1.0000, ,1.33591
1010,70.4750,5.0000, , ,1.0000, ,1.33508
1011,70.5250,5.0000, , ,1.0000, ,1.33426
1012,70.5750,5.0000, , ,1.0000, ,1.33344
1013,70.6250,4.0000, , ,1.0000, ,1.33262
1014,70.6750,5.0000, , ,1.0000, ,1.33179
1015,70.7250,4.0000, , ,1.0000, ,1.33098
1016,70.7750,4.0000, , ,1.0000, ,1.33016
1017,70.8250,3.0000, , ,1.0000, ,1.32934
1018,70.8750,4.0000, , ,1.0000, ,1.32853
1019,70.9250,6.0000, , ,1.0000, ,1.32771
1020,70.9750,7.0000, , ,1.0000, ,1.32690
1021,71.0250,8.0000, , ,1.0000, ,1.32609
1022,71.0750,8.0000, , ,1.0000, ,1.32528
1023,71.1250,8.0000, , ,1.0000, ,1.32447
1024,71.1750,8.0000, , ,1.0000, ,1.32366
1025,71.2250,6.0000, , ,1.0000, ,1.32286
1026,71.2750,7.0000, , ,1.0000, ,1.32205
1027,71.3250,7.0000, , ,1.0000, ,1.32125
1028,71.3750,7.0000, , ,1.0000, ,1.32044
1029,71.4250,8.0000, , ,1.0000, ,1.31964
1030,71.4750,9.0000, , ,1.0000, ,1.31884
1031,71.5250,9.0000, , ,1.0000, ,1.31804
1032,71.5750,9.0000, , ,1.0000, ,1.31724
1033,71.6250,10.0000, , ,1.0000, ,1.31645
1034,71.6750,9.0000, , ,1.0000, ,1.31565
1035,71.7250,8.0000, , ,1.0000, ,1.31486
1036,71.7750,8.0000, , ,1.0000, ,1.31406
1037,71.8250,7.0000, , ,1.0000, ,1.31327
1038,71.8750,6.0000, , ,1.0000, ,1.31248
1039,71.9250,6.0000, , ,1.0000, ,1.31169
1040,71.9750,7.0000, , ,1.0000, ,1.31090
1041,72.0250,6.0000, , ,1.0000, ,1.31012
1042,72.0750,6.0000, , ,1.0000, ,1.30933
1043,72.1250,6.0000, , ,1.0000, ,1.30855
1044,72.1750,4.0000, , ,1.0000, ,1.30776
1045,72.2250,5.0000, , ,1.0000, ,1.30698
1046,72.2750,5.0000, , ,1.0000, ,1.30620
1047,72.3250,5.0000, , ,1.0000, ,1.30542
1048,72.3750,4.0000, , ,1.0000, ,1.30464
1049,72.4250,5.0000, , ,1.0000, ,1.30386
1050,72.4750,6.0000, , ,1.0000, ,1.30309
1051,72.5250,6.0000, , ,1.0000, ,1.30231
1052,72.5750,7.0000, , ,1.0000, ,1.30154
1053,72.6250,7.0000, , ,1.0000, ,1.30077
1054,72.6750,7.0000, , ,1.0000, ,1.29999
1055,72.7250,7.0000, , ,1.0000, ,1.29922
1056,72.7750,7.0000, , ,1.0000, ,1.29845
1057,72.8250,5.0000, , ,1.0000, ,1.29769
1058,72.8750,4.0000, , ,1.0000, ,1.29692
1059,72.9250,4.0000, , ,1.0000, ,1.29615
1060,72.9750,4.0000, , ,1.0000, ,1.29539
1061,73.0250,4.0000, , ,1.0000, ,1.29462
1062,73.0750,5.0000, , ,1.0000, ,1.29386
1063,73.1250,6.0000, , ,1.0000, ,1.29310
1064,73.1750,6.0000, , ,1.0000, ,1.29234
1065,73.2250,6.0000, , ,1.0000, ,1.29158
1066,73.2750,6.0000, , ,1.0000, ,1.29082
1067,73.3250,6.0000, , ,1.0000, ,1.29007
1068,73.3750,6.0000, , ,1.0000, ,1.28931
1069,73.4250,6.0000, , ,1.0000, ,1.28856
1070,73.4750,6.0000, , ,1.0000, ,1.28780
1071,73.5250,6.0000, , ,1.0000, ,1.28705
1072,73.5750,6.0000, , ,1.0000, ,1.28630
1073,73.6250,5.0000, , ,1.0000, ,1.28555
1074,73.6750,5.0000, , ,1.0000, ,1.28480
1075,73.7250,5.0000, , ,1.0000, ,1.28405
1076,73.7750,6.0000, , ,1.0000, ,1.28331
1077,73.8250,6.0000, , ,1.0000, ,1.28256
1078,73.8750,6.0000, , ,1.0000, ,1.28182
1079,73.9250,6.0000, , ,1.0000, ,1.28107
1080,73.9750,6.0000, , ,1.0000, ,1.28033
1081,74.0250,5.0000, , ,1.0000, ,1.27959
1082,74.0750,5.0000, , ,1.0000, ,1.27885
1083,74.1250,6.0000, , ,1.0000, ,1.27811
1084,74.1750,7.0000, , ,1.0000, ,1.27737
1085,74.2250,8.0000, , ,1.0000, ,1.27664
1086,74.2750,9.0000, , ,1.0000, ,1.27590
1087,74.3250,11.0000, , ,1.0000, ,1.27517
1088,74.3750,12.0000, , ,1.0000, ,1.27443
1089,74.4250,14.0000, , ,1.0000, ,1.27370
1090,74.4750,14.0000, , ,1.0000, ,1.27297
1091,74.5250,14.0000, , ,1.0000, ,1.27224
1092,74.5750,15.0000, , ,1.0000, ,1.27151
1093,74.6250,14.0000, , ,1.0000, ,1.27078
1094,74.6750,12.0000, , ,1.0000, ,1.27005
1095,74.7250,10.0000, , ,1.0000, ,1.26933
1096,74.7750,8.0000, , ,1.0000, ,1.26860
1097,74.8250,9.0000, , ,1.0000, ,1.26788
1098,74.8750,8.0000, , ,1.0000, ,1.26716
1099,74.9250,8.0000, , ,1.0000, ,1.26643
1100,74.9750,7.0000, , ,1.0000, ,1.26571
1101,75.0250,7.0000, , ,1.0000, ,1.26499
1102,75.0750,7.0000, , ,1.0000, ,1.26428
1103,75.1250,7.0000, , ,1.0000, ,1.26356
1104,75.1750,6.0000, , ,1.0000, ,1.26284
1105,75.2250,6.0000, , ,1.0000, ,1.26213
1106,75.2750,6.0000, , ,1.0000, ,1.26141
1107,75.3250,7.0000, , ,1.0000, ,1.26070
1108,75.3750,7.0000, , ,1.0000, ,1.25999
1109,75.4250,7.0000, , ,1.0000, ,1.25928
1110,75.4750,8.0000, , ,1.0000, ,1.25857
1111,75.5250,7.0000, , ,1.0000, ,1.25786
1112,75.5750,7.0000, , ,1.0000, ,1.25715
1113,75.6250,7.0000, , ,1.0000, ,1.25644
1114,75.6750,6.0000, , ,1.0000, ,1.25574
1115,75.7250,6.0000, , ,1.0000, ,1.25503
1116,75.7750,7.0000, , ,1.0000, ,1.25433
1117,75.8250,7.0000, , ,1.0000, ,1.25362
1118,75.8750,7.0000, , ,1.0000, ,1.25292
1119,75.9250,8.0000, , ,1.0000, ,1.25222
1120,75.9750,7.0000, , ,1.0000, ,1.25152
1121,76.0250,7.0000, , ,1.0000, ,1.25082
1122,76.0750,6.0000, , ,1.0000, ,1.25013
1123,76.1250,6.0000, , ,1.0000, ,1.24943
1124,76.1750,5.0000, , ,1.0000, ,1.24873
1125,76.2250,6.0000, , ,1.0000, ,1.24804
1126,76.2750,6.0000, , ,1.0000, ,1.24735
1127,76.3250,6.0000, , ,1.0000, ,1.24665
1128,76.3750,6.0000, , ,1.0000, ,1.24596
1129,76.4250,6.0000, , ,1.0000, ,1.24527
1130,76.4750,5.0000, , ,1.0000, ,1.24458
1131,76.5250,5.0000, , ,1.0000, ,1.24389
1132,76.5750,5.0000, , ,1.0000, ,1.24320
1133,76.6250,5.0000, , ,1.0000, ,1.24252
1134,76.6750,5.0000, , ,1.0000, ,1.24183
1135,76.7250,5.0000, , ,1.0000, ,1.24115
1136,76.7750,4.0000, , ,1.0000, ,1.24046
1137,76.8250,4.0000, , ,1.0000, ,1.23978
1138,76.8750,5.0000, , ,1.0000, ,1.23910
1139,76.9250,5.0000, , ,1.0000, ,1.23842
1140,76.9750,5.0000, , ,1.0000, ,1.23774
1141,77.0250,6.0000, , ,1.0000, ,1.23706
1142,77.0750,6.0000, , ,1.0000, ,1.23638
1143,77.1250,6.0000, , ,1.0000, ,1.23571
1144,77.1750,6.0000, , ,1.0000, ,1.23503
1145,77.2250,5.0000, , ,1.0000, ,1.23435
1146,77.2750,4.0000, , ,1.0000, ,1.23368
1147,77.3250,5.0000, , ,1.0000, ,1.23301
1148,77.3750,5.0000, , ,1.0000, ,1.23234
1149,77.4250,3.0000, , ,1.0000, ,1.23166
1150,77.4750,4.0000, , ,1.0000, ,1.23099
1151,77.5250,4.0000, , ,1.0000, ,1.23033
1152,77.5750,4.0000, , ,1.0000, ,1.22966
1153,77.6250,4.0000, , ,1.0000, ,1.22899
1154,77.6750,4.0000, , ,1.0000, ,1.22832
1155,77.7250,4.0000, , ,1.0000, ,1.22766
1156,77.7750,5.0000, , ,1.0000, ,1.22699
1157,77.8250,5.0000, , ,1.0000, ,1.22633
1158,77.8750,5.0000, , ,1.0000, ,1.22567
1159,77.9250,4.0000, , ,1.0000, ,1.22501
1160,77.9750,5.0000, , ,1.0000, ,1.22435
1161,78.0250,4.0000, , ,1.0000, ,1.22369
1162,78.0750,4.0000, , ,1.0000, ,1.22303
1163,78.1250,3.0000, , ,1.0000, ,1.22237
1164,78.1750,3.0000, , ,1.0000, ,1.22171
1165,78.2250,3.0000, , ,1.0000, ,1.22106
1166,78.2750,4.0000, , ,1.0000, ,1.22040
1167,78.3250,4.0000, , ,1.0000, ,1.21975
1168,78.3750,3.0000, , ,1.0000, ,1.21910
1169,78.4250,4.0000, , ,1.0000, ,1.21845
1170,78.4750,4.0000, , ,1.0000, ,1.21779
1171,78.5250,4.0000, , ,1.0000, ,1.21714
1172,78.5750,4.0000, , ,1.0000, ,1.21649
1173,78.6250,4.0000, , ,1.0000, ,1.21585
1174,78.6750,4.0000, , ,1.0000, ,1.21520
1175,78.7250,4.0000, , ,1.0000, ,1.21455
1176,78.7750,4.0000, , ,1.0000, ,1.21391
1177,78.8250,5.0000, , ,1.0000, ,1.21326
1178,78.8750,5.0000, , ,1.0000, ,1.21262
1179,78.9250,6.0000, , ,1.0000, ,1.21198
1180,78.9750,6.0000, , ,1.0000, ,1.21133
1181,79.0250,6.0000, , ,1.0000, ,1.21069
1182,79.0750,6.0000, , ,1.0000, ,1.21005
1183,79.1250,6.0000, , ,1.0000, ,1.20941
1184,79.1750,5.0000, , ,1.0000, ,1.20878
1185,79.2250,5.0000, , ,1.0000, ,1.20814
1186,79.2750,5.0000, , ,1.0000, ,1.20750
1187,79.3250,5.0000, , ,1.0000, ,1.20687
1188,79.3750,5.0000, , ,1.0000, ,1.20623
1189,79.4250,5.0000, , ,1.0000, ,1.20560
1190,79.4750,5.0000, , ,1.0000, ,1.20496
1191,79.5250,6.0000, , ,1.0000, ,1.20433
1192,79.5750,5.0000, , ,1.0000, ,1.20370
1193,79.6250,5.0000, , ,1.0000, ,1.20307
1194,79.6750,6.0000, , ,1.0000, ,1.20244
1195,79.7250,6.0000, , ,1.0000, ,1.20181
1196,79.7750,6.0000, , ,1.0000, ,1.20119
1197,79.8250,6.0000, , ,1.0000, ,1.20056
1198,79.8750,6.0000, , ,1.0000, ,1.19993
1199,79.9250,6.0000, , ,1.0000, ,1.19931
1200,79.9750,5.0000, , ,1.0000, ,1.19868
1201,80.0250,4.0000, , ,1.0000, ,1.19806
1202,80.0750,3.0000, , ,1.0000, ,1.19744
1203,80.1250,3.0000, , ,1.0000, ,1.19682
1204,80.1750,3.0000, , ,1.0000, ,1.19620
1205,80.2250,4.0000, , ,1.0000, ,1.19558
1206,80.2750,4.0000, , ,1.0000, ,1.19496
1207,80.3250,5.0000, , ,1.0000, ,1.19434
1208,80.3750,5.0000, , ,1.0000, ,1.19372
1209,80.4250,6.0000, , ,1.0000, ,1.19311
1210,80.4750,6.0000, , ,1.0000, ,1.19249
1211,80.5250,5.0000, , ,1.0000, ,1.19188
1212,80.5750,5.0000, , ,1.0000, ,1.19126
1213,80.6250,4.0000, , ,1.0000, ,1.19065
1214,80.6750,4.0000, , ,1.0000, ,1.19004
1215,80.7250,5.0000, , ,1.0000, ,1.18943
1216,80.7750,5.0000, , ,1.0000, ,1.18882
1217,80.8250,4.0000, , ,1.0000, ,1.18821
1218,80.8750,5.0000, , ,1.0000, ,1.18760
1219,80.9250,4.0000, , ,1.0000, ,1.18699
1220,80.9750,3.0000, , ,1.0000, ,1.18639
1221,81.0250,3.0000, , ,1.0000, ,1.18578
1222,81.0750,2.0000, , ,1.0000, ,1.18517
1223,81.1250,2.0000, , ,1.0000, ,1.18457
1224,81.1750,3.0000, , ,1.0000, ,1.18397
1225,81.2250,4.0000, , ,1.0000, ,1.18336
1226,81.2750,4.0000, , ,1.0000, ,1.18276
1227,81.3250,5.0000, , ,1.0000, ,1.18216
1228,81.3750,5.0000, , ,1.0000, ,1.18156
1229,81.4250,5.0000, , ,1.0000, ,1.18096
1230,81.4750,4.0000, , ,1.0000, ,1.18036
1231,81.5250,4.0000, , ,1.0000, ,1.17977
1232,81.5750,4.0000, , ,1.0000, ,1.17917
1233,81.6250,4.0000, , ,1.0000, ,1.17857
1234,81.6750,4.0000, , ,1.0000, ,1.17798
1235,81.7250,3.0000, , ,1.0000, ,1.17738
1236,81.7750,3.0000, , ,1.0000, ,1.17679
1237,81.8250,3.0000, , ,1.0000, ,1.17620
1238,81.8750,2.0000, , ,1.0000, ,1.17561
1239,81.9250,3.0000, , ,1.0000, ,1.17502
1240,81.9750,3.0000, , ,1.0000, ,1.17443
1241,82.0250,3.0000, , ,1.0000, ,1.17384
1242,82.0750,3.0000, , ,1.0000, ,1.17325
1243,82.1250,4.0000, , ,1.0000, ,1.17266
1244,82.1750,6.0000, , ,1.0000, ,1.17207
1245,82.2250,8.0000, , ,1.0000, ,1.17149
1246,82.2750,11.0000, , ,1.0000, ,1.17090
1247,82.3250,12.0000, , ,1.0000, ,1.17032
1248,82.3750,14.0000, , ,1.0000, ,1.16973
1249,82.4250,16.0000, , ,1.0000, ,1.16915
1250,82.4750,15.0000, , ,1.0000, ,1.16857
1251,82.5250,14.0000, , ,1.0000, ,1.16799
1252,82.5750,12.0000, , ,1.0000, ,1.16741
1253,82.6250,10.0000, , ,1.0000, ,1.16683
1254,82.6750,9.0000, , ,1.0000, ,1.16625
1255,82.7250,9.0000, , ,1.0000, ,1.16567
1256,82.7750,8.0000, , ,1.0000, ,1.16509
1257,82.8250,7.0000, , ,1.0000, ,1.16452
1258,82.8750,6.0000, , ,1.0000, ,1.16394
1259,82.9250,6.0000, , ,1.0000, ,1.16337
1260,82.9750,3.0000, , ,1.0000, ,1.16279
1261,83.0250,3.0000, , ,1.0000, ,1.16222
1262,83.0750,3.0000, , ,1.0000, ,1.16165
1263,83.1250,3.0000, , ,1.0000, ,1.16107
1264,83.1750,4.0000, , ,1.0000, ,1.16050
1265,83.2250,4.0000, , ,1.0000, ,1.15993
1266,83.2750,3.0000, , ,1.0000, ,1.15936
1267,83.3250,3.0000, , ,1.0000, ,1.15879
1268,83.3750,3.0000, , ,1.0000, ,1.15823
1269,83.4250,3.0000, , ,1.0000, ,1.15766
1270,83.4750,3.0000, , ,1.0000, ,1.15709
1271,83.5250,3.0000, , ,1.0000, ,1.15653
1272,83.5750,3.0000, , ,1.0000, ,1.15596
1273,83.6250,3.0000, , ,1.0000, ,1.15540
1274,83.6750,3.0000, , ,1.0000, ,1.15484
1275,83.7250,3.0000, , ,1.0000, ,1.15427
1276,83.7750,3.0000, , ,1.0000, ,1.15371
1277,83.8250,3.0000, , ,1.0000, ,1.15315
1278,83.8750,3.0000, , ,1.0000, ,1.15259
1279,83.9250,4.0000, , ,1.0000, ,1.15203
1280,83.9750,4.0000, , ,1.0000, ,1.15147
1281,84.0250,4.0000, , ,1.0000, ,1.15091
1282,84.0750,4.0000, , ,1.0000, ,1.15036
1283,84.1250,3.0000, , ,1.0000, ,1.14980
1284,84.1750,2.0000, , ,1.0000, ,1.14925
1285,84.2250,3.0000, , ,1.0000, ,1.14869
1286,84.2750,3.0000, , ,1.0000, ,1.14814
1287,84.3250,3.0000, , ,1.0000, ,1.14758
1288,84.3750,3.0000, , ,1.0000, ,1.14703
1289,84.4250,3.0000, , ,1.0000, ,1.14648
1290,84.4750,4.0000, , ,1.0000, ,1.14593
1291,84.5250,4.0000, , ,1.0000, ,1.14538
1292,84.5750,4.0000, , ,1.0000, ,1.14483
1293,84.6250,4.0000, , ,1.0000, ,1.14428
1294,84.6750,4.0000, , ,1.0000, ,1.14373
1295,84.7250,4.0000, , ,1.0000, ,1.14318
1296,84.7750,3.0000, , ,1.0000, ,1.14264
1297,84.8250,3.0000, , ,1.0000, ,1.14209
1298,84.8750,3.0000, , ,1.0000, ,1.14155
1299,84.9250,3.0000, , ,1.0000, ,1.14100
1300,84.9750,4.0000, , ,1.0000, ,1.14046
1301,85.0250,4.0000, , ,1.0000, ,1.13992
1302,85.0750,4.0000, , ,1.0000, ,1.13937
1303,85.1250,5.0000, , ,1.0000, ,1.13883
1304,85.1750,5.0000, , ,1.0000, ,1.13829
1305,85.2250,5.0000, , ,1.0000, ,1.13775
1306,85.2750,5.0000, , ,1.0000, ,1.13721
1307,85.3250,6.0000, , ,1.0000, ,1.13667
1308,85.3750,6.0000, , ,1.0000, ,1.13614
1309,85.4250,6.0000, , ,1.0000, ,1.13560
1310,85.4750,6.0000, , ,1.0000, ,1.13506
1311,85.5250,5.0000, , ,1.0000, ,1.13453
1312,85.5750,4.0000, , ,1.0000, ,1.13399
1313,85.6250,3.0000, , ,1.0000, ,1.13346
1314,85.6750,4.0000, , ,1.0000, ,1.13292
1315,85.7250,3.0000, , ,1.0000, ,1.13239
1316,85.7750,4.0000, , ,1.0000, ,1.13186
1317,85.8250,5.0000, , ,1.0000, ,1.13133
1318,85.8750,4.0000, , ,1.0000, ,1.13080
1319,85.9250,4.0000, , ,1.0000, ,1.13027
1320,85.9750,4.0000, , ,1.0000, ,1.12974
1321,86.0250,4.0000, , ,1.0000, ,1.12921
1322,86.0750,4.0000, , ,1.0000, ,1.12868
1323,86.1250,4.0000, , ,1.0000, ,1.12815
1324,86.1750,4.0000, , ,1.0000, ,1.12763
1325,86.2250,4.0000, , ,1.0000, ,1.12710
1326,86.2750,4.0000, , ,1.0000, ,1.12658
1327,86.3250,4.0000, , ,1.0000, ,1.12605
1328,86.3750,4.0000, , ,1.0000, ,1.12553
1329,86.4250,4.0000, , ,1.0000, ,1.12501
1330,86.4750,4.0000, , ,1.0000, ,1.12448
1331,86.5250,4.0000, , ,1.0000, ,1.12396
1332,86.5750,4.0000, , ,1.0000, ,1.12344
1333,86.6250,4.0000, , ,1.0000, ,1.12292
1334,86.6750,4.0000, , ,1.0000, ,1.12240
1335,86.7250,3.0000, , ,1.0000, ,1.12188
1336,86.7750,4.0000, , ,1.0000, ,1.12137
1337,86.8250,4.0000, , ,1.0000, ,1.12085
1338,86.8750,5.0000, , ,1.0000, ,1.12033
1339,86.9250,5.0000, , ,1.0000, ,1.11982
1340,86.9750,6.0000, , ,1.0000, ,1.11930
1341,87.0250,5.0000, , ,1.0000, ,1.11879
1342,87.0750,5.0000, , ,1.0000, ,1.11827
1343,87.1250,5.0000, , ,1.0000, ,1.11776
1344,87.1750,7.0000, , ,1.0000, ,1.11725
1345,87.2250,8.0000, , ,1.0000, ,1.11674
1346,87.2750,8.0000, , ,1.0000, ,1.11622
1347,87.3250,9.0000, , ,1.0000, ,1.11571
1348,87.3750,8.0000, , ,1.0000, ,1.11520
1349,87.4250,9.0000, , ,1.0000, ,1.11470
1350,87.4750,8.0000, , ,1.0000, ,1.11419
1351,87.5250,7.0000, , ,1.0000, ,1.11368
1352,87.5750,7.0000, , ,1.0000, ,1.11317
1353,87.6250,7.0000, , ,1.0000, ,1.11267
1354,87.6750,7.0000, , ,1.0000, ,1.11216
1355,87.7250,6.0000, , ,1.0000, ,1.11165
1356,87.7750,5.0000, , ,1.0000, ,1.11115
1357,87.8250,4.0000, , ,1.0000, ,1.11065
1358,87.8750,3.0000, , ,1.0000, ,1.11014
1359,87.9250,3.0000, , ,1.0000, ,1.10964
1360,87.9750,3.0000, , ,1.0000, ,1.10914
1361,88.0250,3.0000, , ,1.0000, ,1.10864
1362,88.0750,4.0000, , ,1.0000, ,1.10814
1363,88.1250,4.0000, , ,1.0000, ,1.10764
1364,88.1750,4.0000, , ,1.0000, ,1.10714
1365,88.2250,3.0000, , ,1.0000, ,1.10664
1366,88.2750,4.0000, , ,1.0000, ,1.10614
1367,88.3250,3.0000, , ,1.0000, ,1.10565
1368,88.3750,4.0000, , ,1.0000, ,1.10515
1369,88.4250,3.0000, , ,1.0000, ,1.10465
1370,88.4750,3.0000, , ,1.0000, ,1.10416
1371,88.5250,3.0000, , ,1.0000, ,1.10366
1372,88.5750,3.0000, , ,1.0000, ,1.10317
1373,88.6250,3.0000, , ,1.0000, ,1.10268
1374,88.6750,3.0000, , ,1.0000, ,1.10219
1375,88.7250,2.0000, , ,1.0000, ,1.10169
1376,88.7750,4.0000, , ,1.0000, ,1.10120
1377,88.8250,4.0000, , ,1.0000, ,1.10071
1378,88.8750,5.0000, , ,1.0000, ,1.10022
1379,88.9250,5.0000, , ,1.0000, ,1.09973
1380,88.9750,5.0000, , ,1.0000, ,1.09924
1381,89.0250,6.0000, , ,1.0000, ,1.09876
1382,89.0750,5.0000, , ,1.0000, ,1.09827
1383,89.1250,5.0000, , ,1.0000, ,1.09778
1384,89.1750,4.0000, , ,1.0000, ,1.09730
1385,89.2250,3.0000, , ,1.0000, ,1.09681
1386,89.2750,3.0000, , ,1.0000, ,1.09633
1387,89.3250,3.0000, , ,1.0000, ,1.09584
1388,89.3750,3.0000, , ,1.0000, ,1.09536
1389,89.4250,4.0000, , ,1.0000, ,1.09487
1390,89.4750,5.0000, , ,1.0000, ,1.09439
1391,89.5250,6.0000, , ,1.0000, ,1.09391
1392,89.5750,6.0000, , ,1.0000, ,1.09343
1393,89.6250,7.0000, , ,1.0000, ,1.09295
1394,89.6750,7.0000, , ,1.0000, ,1.09247
1395,89.7250,7.0000, , ,1.0000, ,1.09199
1396,89.7750,8.0000, , ,1.0000, ,1.09151
1397,89.8250,9.0000, , ,1.0000, ,1.09103
1398,89.8750,9.0000, , ,1.0000, ,1.09056
1399,89.9250,10.0000, , ,1.0000, ,1.09008
1400,89.9750,11.0000, , ,1.0000, ,1.08961
1401,90.0250,12.0000, , ,1.0000, ,1.08913
1402,90.0750,13.0000, , ,1.0000, ,1.08866
1403,90.1250,14.0000, , ,1.0000, ,1.08818
1404,90.1750,13.0000, , ,1.0000, ,1.08771
1405,90.2250,12.0000, , ,1.0000, ,1.08723
1406,90.2750,14.0000, , ,1.0000, ,1.08676
1407,90.3250,15.0000, , ,1.0000, ,1.08629
1408,90.3750,15.0000, , ,1.0000, ,1.08582
1409,90.4250,16.0000, , ,1.0000, ,1.08535
1410,90.4750,15.0000, , ,1.0000, ,1.08488
1411,90.5250,14.0000, , ,1.0000, ,1.08441
1412,90.5750,13.0000, , ,1.0000, ,1.08394
1413,90.6250,11.0000, , ,1.0000, ,1.08347
1414,90.6750,9.0000, , ,1.0000, ,1.08301
1415,90.7250,7.0000, , ,1.0000, ,1.08254
1416,90.7750,8.0000, , ,1.0000, ,1.08207
1417,90.8250,7.0000, , ,1.0000, ,1.08161
1418,90.8750,7.0000, , ,1.0000, ,1.08114
1419,90.9250,7.0000, , ,1.0000, ,1.08068
1420,90.9750,7.0000, , ,1.0000, ,1.08022
1421,91.0250,6.0000, , ,1.0000, ,1.07975
1422,91.0750,5.0000, , ,1.0000, ,1.07929
1423,91.1250,4.0000, , ,1.0000, ,1.07883
1424,91.1750,4.0000, , ,1.0000, ,1.07837
1425,91.2250,4.0000, , ,1.0000, ,1.07791
1426,91.2750,3.0000, , ,1.0000, ,1.07745
1427,91.3250,3.0000, , ,1.0000, ,1.07699
1428,91.3750,4.0000, , ,1.0000, ,1.07653
1429,91.4250,4.0000, , ,1.0000, ,1.07607
1430,91.4750,4.0000, , ,1.0000, ,1.07561
1431,91.5250,3.0000, , ,1.0000, ,1.07515
1432,91.5750,2.0000, , ,1.0000, ,1.07470
1433,91.6250,2.0000, , ,1.0000, ,1.07424
1434,91.6750,3.0000, , ,1.0000, ,1.07379
1435,91.7250,3.0000, , ,1.0000, ,1.07333
1436,91.7750,3.0000, , ,1.0000, ,1.07288
1437,91.8250,3.0000, , ,1.0000, ,1.07242
1438,91.8750,3.0000, , ,1.0000, ,1.07197
1439,91.9250,3.0000, , ,1.0000, ,1.07152
1440,91.9750,4.0000, , ,1.0000, ,1.07107
1441,92.0250,3.0000, , ,1.0000, ,1.07062
1442,92.0750,3.0000, , ,1.0000, ,1.07017
1443,92.1250,3.0000, , ,1.0000, ,1.06972
1444,92.1750,3.0000, , ,1.0000, ,1.06927
1445,92.2250,3.0000, , ,1.0000, ,1.06882
1446,92.2750,2.0000, , ,1.0000, ,1.06837
1447,92.3250,2.0000, , ,1.0000, ,1.06792
1448,92.3750,2.0000, , ,1.0000, ,1.06747
1449,92.4250,2.0000, , ,1.0000, ,1.06703
1450,92.4750,3.0000, , ,1.0000, ,1.06658
1451,92.5250,3.0000, , ,1.0000, ,1.06614
1452,92.5750,3.0000, , ,1.0000, ,1.06569
1453,92.6250,3.0000, , ,1.0000, ,1.06525
1454,92.6750,3.0000, , ,1.0000, ,1.06480
1455,92.7250,4.0000, , ,1.0000, ,1.06436
1456,92.7750,4.0000, , ,1.0000, ,1.06392
1457,92.8250,4.0000, , ,1.0000, ,1.06348
1458,92.8750,4.0000, , ,1.0000, ,1.06303
1459,92.9250,4.0000, , ,1.0000, ,1.06259
1460,92.9750,4.0000, , ,1.0000, ,1.06215
1461,93.0250,3.0000, , ,1.0000, ,1.06171
1462,93.0750,2.0000, , ,1.0000, ,1.06127
1463,93.1250,2.0000, , ,1.0000, ,1.06084
1464,93.1750,3.0000, , ,1.0000, ,1.06040
1465,93.2250,4.0000, , ,1.0000, ,1.05996
1466,93.2750,5.0000, , ,1.0000, ,1.05952
1467,93.3250,5.0000, , ,1.0000, ,1.05909
1468,93.3750,6.0000, , ,1.0000, ,1.05865
1469,93.4250,6.0000, , ,1.0000, ,1.05822
1470,93.4750,5.0000, , ,1.0000, ,1.05778
1471,93.5250,4.0000, , ,1.0000, ,1.05735
1472,93.5750,4.0000, , ,1.0000, ,1.05691
1473,93.6250,3.0000, , ,1.0000, ,1.05648
1474,93.6750,3.0000, , ,1.0000, ,1.05605
1475,93.7250,3.0000, , ,1.0000, ,1.05562
1476,93.7750,3.0000, , ,1.0000, ,1.05519
1477,93.8250,4.0000, , ,1.0000, ,1.05475
1478,93.8750,3.0000, , ,1.0000, ,1.05432
1479,93.9250,3.0000, , ,1.0000, ,1.05389
1480,93.9750,3.0000, , ,1.0000, ,1.05347
1481,94.0250,3.0000, , ,1.0000, ,1.05304
1482,94.0750,3.0000, , ,1.0000, ,1.05261
1483,94.1250,3.0000, , ,1.0000, ,1.05218
1484,94.1750,3.0000, , ,1.0000, ,1.05175
1485,94.2250,4.0000, , ,1.0000, ,1.05133
1486,94.2750,4.0000, , ,1.0000, ,1.05090
1487,94.3250,4.0000, , ,1.0000, ,1.05048
1488,94.3750,4.0000, , ,1.0000, ,1.05005
1489,94.4250,4.0000, , ,1.0000, ,1.04963
1490,94.4750,4.0000, , ,1.0000, ,1.04920
1491,94.5250,5.0000, , ,1.0000, ,1.04878
1492,94.5750,5.0000, , ,1.0000, ,1.04836
1493,94.6250,4.0000, , ,1.0000, ,1.04794
1494,94.6750,4.0000, , ,1.0000, ,1.04752
1495,94.7250,5.0000, , ,1.0000, ,1.04709
1496,94.7750,6.0000, , ,1.0000, ,1.04667
1497,94.8250,5.0000, , ,1.0000, ,1.04625
1498,94.8750,6.0000, , ,1.0000, ,1.04583
1499,94.9250,6.0000, , ,1.0000, ,1.04542
1500,94.9750,7.0000, , ,1.0000, ,1.04500
1501,95.0250,8.0000, , ,1.0000, ,1.04458
1502,95.0750,8.0000, , ,1.0000, ,1.04416
1503,95.1250,7.0000, , ,1.0000, ,1.04375
1504,95.1750,6.0000, , ,1.0000, ,1.04333
1505,95.2250,6.0000, , ,1.0000, ,1.04291
1506,95.2750,6.0000, , ,1.0000, ,1.04250
1507,95.3250,5.0000, , ,1.0000, ,1.04208
1508,95.3750,4.0000, , ,1.0000, ,1.04167
1509,95.4250,5.0000, , ,1.0000, ,1.04126
1510,95.4750,5.0000, , ,1.0000, ,1.04084
1511,95.5250,6.0000, , ,1.0000, ,1.04043
1512,95.5750,5.0000, , ,1.0000, ,1.04002
1513,95.6250,5.0000, , ,1.0000, ,1.03961
1514,95.6750,4.0000, , ,1.0000, ,1.03920
1515,95.7250,4.0000, , ,1.0000, ,1.03879
1516,95.7750,4.0000, , ,1.0000, ,1.03838
1517,95.8250,4.0000, , ,1.0000, ,1.03797
1518,95.8750,4.0000, , ,1.0000, ,1.03756
1519,95.9250,4.0000, , ,1.0000, ,1.03715
1520,95.9750,4.0000, , ,1.0000, ,1.03674
1521,96.0250,4.0000, , ,1.0000, ,1.03634
1522,96.0750,4.0000, , ,1.0000, ,1.03593
1523,96.1250,4.0000, , ,1.0000, ,1.03552
1524,96.1750,4.0000, , ,1.0000, ,1.03512
1525,96.2250,4.0000, , ,1.0000, ,1.03471
1526,96.2750,3.0000, , ,1.0000, ,1.03431
1527,96.3250,4.0000, , ,1.0000, ,1.03390
1528,96.3750,5.0000, , ,1.0000, ,1.03350
1529,96.4250,5.0000, , ,1.0000, ,1.03310
1530,96.4750,5.0000, , ,1.0000, ,1.03269
1531,96.5250,4.0000, , ,1.0000, ,1.03229
1532,96.5750,4.0000, , ,1.0000, ,1.03189
1533,96.6250,3.0000, , ,1.0000, ,1.03149
1534,96.6750,3.0000, , ,1.0000, ,1.03109
1535,96.7250,2.0000, , ,1.0000, ,1.03069
1536,96.7750,3.0000, , ,1.0000, ,1.03029
1537,96.8250,3.0000, , ,1.0000, ,1.02989
1538,96.8750,3.0000, , ,1.0000, ,1.02949
1539,96.9250,3.0000, , ,1.0000, ,1.02909
1540,96.9750,3.0000, , ,1.0000, ,1.02870
1541,97.0250,3.0000, , ,1.0000, ,1.02830
1542,97.0750,4.0000, , ,1.0000, ,1.02790
1543,97.1250,3.0000, , ,1.0000, ,1.02751
1544,97.1750,4.0000, , ,1.0000, ,1.02711
1545,97.2250,4.0000, , ,1.0000, ,1.02672
1546,97.2750,4.0000, , ,1.0000, ,1.02632
1547,97.3250,3.0000, , ,1.0000, ,1.02593
1548,97.3750,3.0000, , ,1.0000, ,1.02553
1549,97.4250,3.0000, , ,1.0000, ,1.02514
1550,97.4750,2.0000, , ,1.0000, ,1.02475
1551,97.5250,2.0000, , ,1.0000, ,1.02436
1552,97.5750,3.0000, , ,1.0000, ,1.02396
1553,97.6250,2.0000, , ,1.0000, ,1.02357
1554,97.6750,2.0000, , ,1.0000, ,1.02318
1555,97.7250,2.0000, , ,1.0000, ,1.02279
1556,97.7750,2.0000, , ,1.0000, ,1.02240
1557,97.8250,2.0000, , ,1.0000, ,1.02201
1558,97.8750,3.0000, , ,1.0000, ,1.02163
1559,97.9250,3.0000, , ,1.0000, ,1.02124
1560,97.9750,3.0000, , ,1.0000, ,1.02085
1561,98.0250,4.0000, , ,1.0000, ,1.02046
1562,98.0750,4.0000, , ,1.0000, ,1.02008
1563,98.1250,3.0000, , ,1.0000, ,1.01969
1564,98.1750,3.0000, , ,1.0000, ,1.01930
1565,98.2250,2.0000, , ,1.0000, ,1.01892
1566,98.2750,2.0000, , ,1.0000, ,1.01853
1567,98.3250,3.0000, , ,1.0000, ,1.01815
1568,98.3750,3.0000, , ,1.0000, ,1.01777
1569,98.4250,3.0000, , ,1.0000, ,1.01738
1570,98.4750,3.0000, , ,1.0000, ,1.01700
1571,98.5250,3.0000, , ,1.0000, ,1.01662
1572,98.5750,4.0000, , ,1.0000, ,1.01624
1573,98.6250,4.0000, , ,1.0000, ,1.01585
1574,98.6750,4.0000, , ,1.0000, ,1.01547
1575,98.7250,3.0000, , ,1.0000, ,1.01509
1576,98.7750,3.0000, , ,1.0000, ,1.01471
1577,98.8250,4.0000, , ,1.0000, ,1.01433
1578,98.8750,5.0000, , ,1.0000, ,1.01396
1579,98.9250,6.0000, , ,1.0000, ,1.01358
1580,98.9750,6.0000, , ,1.0000, ,1.01320
1581,99.0250,6.0000, , ,1.0000, ,1.01282
1582,99.0750,7.0000, , ,1.0000, ,1.01244
1583,99.1250,6.0000, , ,1.0000, ,1.01207
1584,99.1750,5.0000, , ,1.0000, ,1.01169
1585,99.2250,4.0000, , ,1.0000, ,1.01132
1586,99.2750,2.0000, , ,1.0000, ,1.01094
1587,99.3250,2.0000, , ,1.0000, ,1.01057
1588,99.3750,3.0000, , ,1.0000, ,1.01019
1589,99.4250,3.0000, , ,1.0000, ,1.00982
1590,99.4750,3.0000, , ,1.0000, ,1.00945
1591,99.5250,4.0000, , ,1.0000, ,1.00907
1592,99.5750,4.0000, , ,1.0000, ,1.00870
1593,99.6250,4.0000, , ,1.0000, ,1.00833
1594,99.6750,4.0000, , ,1.0000, ,1.00796
1595,99.7250,6.0000, , ,1.0000, ,1.00759
1596,99.7750,2.0000, , ,1.0000, ,1.00722
1597,99.8250,1.0000, , ,1.0000, ,1.00685
1598,99.8750,1.0000, , ,1.0000, ,1.00648
1599,99.9250,2.0000, , ,1.0000, ,1.00611
1600,99.9750,1.0000, , ,1.0000, ,1.00574
